# == pyFAI calibration ==
# Distance Sample to Detector: 1.60031005859375 m
# PONI: 4.761e-01, 4.508e-01 m
# Rotations: 0.000000 0.000000 0.000000 rad
# 
# == Fit2d calibration ==
# Distance Sample-beamCenter: 1600.310 mm
# Center: x=60.110, y=63.480 pix
# Tilt: 0.000 deg  TiltPlanRot: 0.000 deg
# 
# Detector Detector	 Spline= None	 PixelSize= 7.500e-03, 7.500e-03 m
#    Detector has a mask: False 
#    Detector has a dark current: False 
#    detector has a flat field: False 
# 
# Wavelength: 4.999969899654389e-09 m
# Mask applied: user provided
# Dark current applied: False
# Flat field applied: False
# Polarization factor: None
# Normalization factor: 1.0
# --> C:/Users/lutzbueno_v/Documents/GitHub/pipeline_SANS1/Data_Py/analysis/det_1p6\integration/integ_080343_H2O_1p6m.dat
#       q_nm^-1              I           sigma 
  3.746326e-02    2.075901e+02   9.617403e+00
  4.135425e-02    3.933488e+02   7.578625e+01
  4.524525e-02    9.384260e+02   1.565620e+02
  4.913625e-02    1.690330e+03   1.812748e+02
  5.302725e-02    2.099529e+03   1.862862e+02
  5.691825e-02    2.593197e+03   1.559500e+02
  6.080925e-02    2.934486e+03   8.350227e+01
  6.470025e-02    3.105843e+03   4.751583e+01
  6.859125e-02    3.141348e+03   3.042065e+01
  7.248225e-02    3.137199e+03   2.662761e+01
  7.637325e-02    3.159865e+03   2.770888e+01
  8.026425e-02    3.156820e+03   2.193149e+01
  8.415525e-02    3.160308e+03   2.471124e+01
  8.804625e-02    3.159083e+03   2.159213e+01
  9.193724e-02    3.165787e+03   2.664314e+01
  9.582824e-02    3.103500e+03   2.198215e+01
  9.971924e-02    3.137206e+03   2.292702e+01
  1.036102e-01    3.140763e+03   2.316798e+01
  1.075012e-01    3.171469e+03   1.982520e+01
  1.113922e-01    3.106149e+03   2.145470e+01
  1.152832e-01    3.134769e+03   2.394777e+01
  1.191742e-01    3.168982e+03   2.009729e+01
  1.230652e-01    3.147216e+03   1.992908e+01
  1.269562e-01    3.194120e+03   2.590912e+01
  1.308472e-01    3.163938e+03   2.263599e+01
  1.347382e-01    3.151387e+03   2.211767e+01
  1.386292e-01    3.166293e+03   2.276089e+01
  1.425202e-01    3.150255e+03   2.217752e+01
  1.464112e-01    3.146199e+03   1.872191e+01
  1.503022e-01    3.159703e+03   2.007163e+01
  1.541932e-01    3.158166e+03   1.848479e+01
  1.580842e-01    3.174886e+03   2.128423e+01
  1.619752e-01    3.132571e+03   2.190814e+01
  1.658662e-01    3.141244e+03   1.964732e+01
  1.697572e-01    3.150136e+03   1.848594e+01
  1.736482e-01    3.121133e+03   1.950193e+01
  1.775392e-01    3.118134e+03   1.945205e+01
  1.814302e-01    3.142001e+03   1.735765e+01
  1.853212e-01    3.148303e+03   1.901572e+01
  1.892122e-01    3.097514e+03   1.853337e+01
  1.931032e-01    3.127706e+03   1.717192e+01
  1.969942e-01    3.129415e+03   1.952168e+01
  2.008852e-01    3.135909e+03   1.805461e+01
  2.047762e-01    3.114681e+03   1.848742e+01
  2.086672e-01    3.107672e+03   1.658199e+01
  2.125582e-01    3.128131e+03   1.772358e+01
  2.164492e-01    3.111314e+03   1.617340e+01
  2.203402e-01    3.112704e+03   1.677580e+01
  2.242312e-01    3.091433e+03   1.770116e+01
  2.281222e-01    3.107325e+03   1.745762e+01
  2.320132e-01    3.117272e+03   1.685372e+01
  2.359042e-01    3.080203e+03   1.658769e+01
  2.397952e-01    3.100529e+03   1.563724e+01
  2.436862e-01    3.096638e+03   1.652290e+01
  2.475772e-01    3.086311e+03   1.573732e+01
  2.514682e-01    3.085424e+03   1.599980e+01
  2.553592e-01    3.065658e+03   1.478159e+01
  2.592502e-01    3.073396e+03   1.523222e+01
  2.631412e-01    3.061901e+03   1.635261e+01
  2.670322e-01    3.050391e+03   1.675209e+01
  2.709232e-01    3.058666e+03   1.562236e+01
  2.748142e-01    3.051123e+03   1.641535e+01
  2.787052e-01    3.047577e+03   1.547105e+01
  2.825962e-01    3.029660e+03   1.484049e+01
  2.864872e-01    3.002281e+03   1.464724e+01
  2.903782e-01    3.028556e+03   1.488976e+01
  2.942692e-01    3.004950e+03   1.508301e+01
  2.981602e-01    2.996325e+03   1.519338e+01
  3.020512e-01    3.016469e+03   1.457992e+01
  3.059422e-01    3.002563e+03   1.538746e+01
  3.098332e-01    3.001431e+03   1.424977e+01
  3.137242e-01    3.002633e+03   1.464821e+01
  3.176152e-01    2.997314e+03   1.329416e+01
  3.215062e-01    2.981740e+03   1.416402e+01
  3.253972e-01    2.973599e+03   1.338782e+01
  3.292882e-01    2.982538e+03   1.420354e+01
  3.331792e-01    2.950537e+03   1.291104e+01
  3.370702e-01    2.937481e+03   1.299944e+01
  3.409612e-01    2.947518e+03   1.387472e+01
  3.448522e-01    2.940168e+03   1.401142e+01
  3.487432e-01    2.939294e+03   1.463180e+01
  3.526342e-01    2.961881e+03   1.556007e+01
  3.565252e-01    2.907961e+03   1.510616e+01
  3.604162e-01    2.920034e+03   1.575486e+01
  3.643072e-01    2.893201e+03   1.614904e+01
  3.681982e-01    2.956764e+03   2.179281e+01
  3.720892e-01    2.949284e+03   2.010615e+01
  3.759802e-01    2.918734e+03   2.049921e+01
  3.798712e-01    2.942159e+03   2.279263e+01
  3.837622e-01    2.915162e+03   2.156594e+01
  3.876532e-01    2.909200e+03   2.193060e+01
  3.915442e-01    2.889253e+03   2.212889e+01
  3.954352e-01    2.865464e+03   2.169316e+01
  3.993262e-01    2.858880e+03   2.341117e+01
  4.032172e-01    2.851040e+03   2.328068e+01
  4.071082e-01    2.869491e+03   2.513030e+01
  4.109992e-01    2.805636e+03   2.622946e+01
  4.148902e-01    2.823984e+03   2.523241e+01
  4.187812e-01    2.795842e+03   2.859577e+01
  4.226722e-01    2.758919e+03   2.925553e+01
  4.265632e-01    2.779192e+03   2.902523e+01
  4.304542e-01    2.754972e+03   3.408773e+01
  4.343452e-01    2.732409e+03   3.335967e+01
  4.382362e-01    2.711017e+03   3.265415e+01
  4.421272e-01    2.716267e+03   3.748903e+01
  4.460182e-01    2.693026e+03   3.356671e+01
  4.499092e-01    2.651232e+03   4.662631e+01
  4.538002e-01    2.693096e+03   4.601638e+01
  4.576912e-01    2.652213e+03   4.596155e+01
  4.615822e-01    2.630944e+03   4.790242e+01
  4.654732e-01    2.607133e+03   5.189001e+01
  4.693642e-01    2.575973e+03   6.282927e+01
  4.732552e-01    2.514885e+03   9.103764e+01
  4.771462e-01    2.596608e+03   8.370802e+01
  4.810372e-01    2.678608e+03   7.410220e+01
  4.849282e-01    2.644668e+03   8.635764e+01
  4.888192e-01    2.630613e+03   7.401676e+01
  4.927102e-01    2.660660e+03   8.690983e+01
  4.966012e-01    2.578944e+03   9.868471e+01
  5.004922e-01    2.050489e+03   1.579523e+02
