# == pyFAI calibration ==
# Distance Sample to Detector: 17.99987109375 m
# PONI: 4.691e-01, 8.478e-01 m
# Rotations: 0.000000 0.000000 0.000000 rad
# 
# == Fit2d calibration ==
# Distance Sample-beamCenter: 17999.871 mm
# Center: x=113.045, y=62.551 pix
# Tilt: 0.000 deg  TiltPlanRot: 0.000 deg
# 
# Detector Detector	 Spline= None	 PixelSize= 7.500e-03, 7.500e-03 m
#    Detector has a mask: False 
#    Detector has a dark current: False 
#    detector has a flat field: False 
# 
# Wavelength: 4.999969899654389e-09 m
# Mask applied: user provided
# Dark current applied: False
# Flat field applied: False
# Polarization factor: None
# Normalization factor: 1.0
# --> C:/Users/lutzbueno_v/Documents/GitHub/pipeline_SANS1/Data_Py/analysis/det_18p0\integration/integ_080435_I_18p0m.dat
#       q_nm^-1              I           sigma 
  3.442948e-03    9.536474e+01   7.056422e+00
  3.974745e-03    5.995090e+01   4.228409e+00
  4.506543e-03    3.430575e+01   1.669560e+00
  5.038341e-03    2.279003e+01   7.927058e-01
  5.570139e-03    1.745766e+01   6.262202e-01
  6.101937e-03    1.337885e+01   4.212030e-01
  6.633734e-03    1.156839e+01   4.049704e-01
  7.165532e-03    1.067830e+01   3.373446e-01
  7.697330e-03    9.266347e+00   3.506916e-01
  8.229128e-03    8.773293e+00   3.280954e-01
  8.760926e-03    8.659168e+00   3.433341e-01
  9.292723e-03    7.917317e+00   2.625928e-01
  9.824521e-03    7.775996e+00   2.810515e-01
  1.035632e-02    6.621729e+00   2.518707e-01
  1.088812e-02    6.857917e+00   2.495737e-01
  1.141991e-02    5.771550e+00   2.625319e-01
  1.195171e-02    6.282672e+00   2.186545e-01
  1.248351e-02    5.783036e+00   2.534922e-01
  1.301531e-02    5.702673e+00   2.219433e-01
  1.354711e-02    5.639875e+00   2.311554e-01
  1.407890e-02    5.200979e+00   2.156004e-01
  1.461070e-02    5.058404e+00   2.210137e-01
  1.514250e-02    5.156863e+00   1.988321e-01
  1.567430e-02    5.163807e+00   1.753302e-01
  1.620609e-02    4.597921e+00   1.922439e-01
  1.673789e-02    4.685071e+00   2.016374e-01
  1.726969e-02    4.971106e+00   1.883918e-01
  1.780149e-02    4.691554e+00   1.788437e-01
  1.833329e-02    4.751517e+00   2.128932e-01
  1.886508e-02    4.809846e+00   1.834482e-01
  1.939688e-02    4.467814e+00   1.840053e-01
  1.992868e-02    4.719901e+00   1.693725e-01
  2.046048e-02    4.498607e+00   1.753787e-01
  2.099227e-02    4.755238e+00   1.712486e-01
  2.152407e-02    4.468226e+00   1.606222e-01
  2.205587e-02    4.322986e+00   1.566733e-01
  2.258767e-02    4.666971e+00   1.763914e-01
  2.311947e-02    4.505283e+00   1.634286e-01
  2.365126e-02    4.548930e+00   1.551096e-01
  2.418306e-02    4.358355e+00   1.591872e-01
  2.471486e-02    4.315354e+00   1.309498e-01
  2.524666e-02    4.023944e+00   1.453838e-01
  2.577845e-02    4.382657e+00   1.408179e-01
  2.631025e-02    4.255378e+00   1.666055e-01
  2.684205e-02    4.414482e+00   1.694643e-01
  2.737385e-02    4.187597e+00   1.611484e-01
  2.790565e-02    4.311647e+00   1.493257e-01
  2.843744e-02    4.249420e+00   1.475719e-01
  2.896924e-02    4.452823e+00   1.447146e-01
  2.950104e-02    4.219834e+00   1.377801e-01
  3.003284e-02    3.933603e+00   1.346513e-01
  3.056464e-02    4.153920e+00   1.345524e-01
  3.109643e-02    4.138058e+00   1.341326e-01
  3.162823e-02    4.131776e+00   1.356813e-01
  3.216003e-02    4.025883e+00   1.360159e-01
  3.269183e-02    4.193830e+00   1.464846e-01
  3.322362e-02    4.072332e+00   1.449536e-01
  3.375542e-02    3.784585e+00   1.370786e-01
  3.428722e-02    3.845470e+00   1.566390e-01
  3.481902e-02    3.931084e+00   1.395544e-01
  3.535082e-02    4.098619e+00   1.578490e-01
  3.588261e-02    4.206365e+00   1.528852e-01
  3.641441e-02    3.948726e+00   1.559794e-01
  3.694621e-02    3.959379e+00   1.762897e-01
  3.747801e-02    3.974999e+00   1.463578e-01
  3.800980e-02    4.072256e+00   1.691783e-01
  3.854160e-02    4.133220e+00   1.716812e-01
  3.907340e-02    4.135246e+00   1.453498e-01
  3.960520e-02    4.145415e+00   1.638161e-01
  4.013700e-02    4.121171e+00   1.703938e-01
  4.066879e-02    4.398799e+00   1.690836e-01
  4.120059e-02    4.113298e+00   1.701541e-01
  4.173239e-02    4.298775e+00   1.883197e-01
  4.226419e-02    4.052926e+00   1.575639e-01
  4.279598e-02    4.122274e+00   1.778801e-01
  4.332778e-02    4.220424e+00   1.571257e-01
  4.385958e-02    4.256001e+00   1.911311e-01
  4.439138e-02    4.452775e+00   1.926835e-01
  4.492318e-02    4.289910e+00   1.663413e-01
  4.545497e-02    3.959155e+00   1.746315e-01
  4.598677e-02    3.952380e+00   1.758747e-01
  4.651857e-02    4.224502e+00   1.769910e-01
  4.705037e-02    4.523016e+00   1.678142e-01
  4.758216e-02    4.440197e+00   1.851964e-01
  4.811396e-02    3.858476e+00   1.731622e-01
  4.864576e-02    4.102736e+00   1.868171e-01
  4.917756e-02    3.700274e+00   1.488637e-01
  4.970936e-02    4.038248e+00   1.826266e-01
  5.024115e-02    3.877899e+00   1.518415e-01
  5.077295e-02    4.142478e+00   1.543836e-01
  5.130475e-02    3.961614e+00   1.690922e-01
  5.183655e-02    3.905794e+00   1.619091e-01
  5.236834e-02    3.913894e+00   1.836277e-01
  5.290014e-02    4.068357e+00   1.792034e-01
  5.343194e-02    3.902659e+00   1.696202e-01
  5.396374e-02    3.578237e+00   1.566323e-01
  5.449554e-02    3.908073e+00   1.594967e-01
  5.502733e-02    3.783291e+00   1.620672e-01
  5.555913e-02    4.148524e+00   1.863146e-01
  5.609093e-02    4.011978e+00   1.647071e-01
  5.662273e-02    3.727655e+00   1.509118e-01
  5.715452e-02    4.062601e+00   1.699187e-01
  5.768632e-02    3.839201e+00   1.704417e-01
  5.821812e-02    3.765848e+00   1.501402e-01
  5.874992e-02    4.094050e+00   1.970502e-01
  5.928172e-02    3.964678e+00   1.972753e-01
  5.981351e-02    3.774179e+00   2.173098e-01
  6.034531e-02    3.749796e+00   1.910899e-01
  6.087711e-02    3.505469e+00   2.230105e-01
  6.140891e-02    3.628367e+00   2.238161e-01
  6.194070e-02    3.730559e+00   2.869333e-01
  6.247250e-02    3.937656e+00   3.080111e-01
  6.300430e-02    3.536053e+00   2.899909e-01
  6.353610e-02    3.814616e+00   3.653039e-01
  6.406790e-02    3.585377e+00   3.066308e-01
  6.459969e-02    3.580838e+00   3.441976e-01
  6.513149e-02    3.223516e+00   4.403428e-01
  6.566329e-02    3.012318e+00   5.182519e-01
  6.619509e-02    2.900939e+00   7.656059e-01
  6.672689e-02    3.213566e+00   7.743396e-01
