# == pyFAI calibration ==
# Distance Sample to Detector: 17.99987109375 m
# PONI: 4.691e-01, 8.478e-01 m
# Rotations: 0.000000 0.000000 0.000000 rad
# 
# == Fit2d calibration ==
# Distance Sample-beamCenter: 17999.871 mm
# Center: x=113.045, y=62.551 pix
# Tilt: 0.000 deg  TiltPlanRot: 0.000 deg
# 
# Detector Detector	 Spline= None	 PixelSize= 7.500e-03, 7.500e-03 m
#    Detector has a mask: False 
#    Detector has a dark current: False 
#    detector has a flat field: False 
# 
# Wavelength: 4.999969899654389e-09 m
# Mask applied: user provided
# Dark current applied: False
# Flat field applied: False
# Polarization factor: None
# Normalization factor: 1.0
# --> C:/Users/lutzbueno_v/Documents/GitHub/pipeline_SANS1/Data_Py/analysis/det_18p0\integration/integ_080410_EB_18p0m.dat
#       q_nm^-1              I           sigma 
  3.442948e-03    1.000011e-04   2.211334e-11
  3.974745e-03    7.509363e-02   4.164262e-02
  4.506543e-03    5.094337e-02   2.859866e-02
  5.038341e-03    1.764254e-02   1.738816e-02
  5.570139e-03    2.866942e-02   1.991124e-02
  6.101937e-03    6.766322e-02   2.917707e-02
  6.633734e-03    1.000042e-04   2.169125e-11
  7.165532e-03    1.121055e-02   1.104893e-02
  7.697330e-03    1.000057e-04   2.403192e-11
  8.229128e-03    3.418970e-02   1.934389e-02
  8.760926e-03    2.448959e-02   1.703505e-02
  9.292723e-03    1.051649e-02   1.036249e-02
  9.824521e-03    1.000092e-04   2.924712e-11
  1.035632e-02    1.000102e-04   3.095336e-11
  1.088812e-02    1.030422e-02   1.015261e-02
  1.141991e-02    1.000124e-04   3.215669e-11
  1.195171e-02    1.000136e-04   3.499990e-11
  1.248351e-02    1.990295e-02   1.386448e-02
  1.301531e-02    1.000161e-04   3.630470e-11
  1.354711e-02    1.000175e-04   3.523214e-11
  1.407890e-02    1.749286e-02   1.219230e-02
  1.461070e-02    2.469271e-02   1.402436e-02
  1.514250e-02    8.297712e-03   8.164934e-03
  1.567430e-02    8.231190e-03   8.099011e-03
  1.620609e-02    8.165745e-03   8.034145e-03
  1.673789e-02    7.454188e-03   7.328032e-03
  1.726969e-02    1.000283e-04   4.210515e-11
  1.780149e-02    1.418737e-02   9.892324e-03
  1.833329e-02    7.454585e-03   7.328644e-03
  1.886508e-02    2.065287e-02   1.174565e-02
  1.939688e-02    1.000357e-04   4.653708e-11
  1.992868e-02    6.813308e-03   6.691950e-03
  2.046048e-02    1.000398e-04   4.809811e-11
  2.099227e-02    1.309119e-02   9.128188e-03
  2.152407e-02    1.237416e-02   8.627602e-03
  2.205587e-02    1.000462e-04   4.939100e-11
  2.258767e-02    1.000485e-04   5.067052e-11
  2.311947e-02    6.090519e-03   5.973999e-03
  2.365126e-02    1.000532e-04   5.167234e-11
  2.418306e-02    1.000556e-04   5.285694e-11
  2.471486e-02    5.689335e-03   5.575272e-03
  2.524666e-02    5.479124e-03   5.366197e-03
  2.577845e-02    1.127919e-02   7.863036e-03
  2.631025e-02    5.257579e-03   5.145921e-03
  2.684205e-02    5.311448e-03   5.199568e-03
  2.737385e-02    5.231416e-03   5.119985e-03
  2.790565e-02    5.078383e-03   4.967748e-03
  2.843744e-02    1.000768e-04   5.653926e-11
  2.896924e-02    9.768649e-03   6.806276e-03
  2.950104e-02    1.000827e-04   5.909312e-11
  3.003284e-02    1.000857e-04   6.028758e-11
  3.056464e-02    4.798622e-03   4.689559e-03
  3.109643e-02    9.366930e-03   6.525225e-03
  3.162823e-02    4.670186e-03   4.561790e-03
  3.216003e-02    8.879768e-03   6.183902e-03
  3.269183e-02    4.843778e-03   4.734834e-03
  3.322362e-02    1.001049e-04   6.753025e-11
  3.375542e-02    1.001083e-04   7.153391e-11
  3.428722e-02    1.001118e-04   7.368051e-11
  3.481902e-02    5.755782e-03   5.642955e-03
  3.535082e-02    6.356923e-03   6.240882e-03
  3.588261e-02    6.204540e-03   6.089473e-03
  3.641441e-02    1.001261e-04   8.198375e-11
  3.694621e-02    6.643904e-03   6.526563e-03
  3.747801e-02    1.001335e-04   8.796952e-11
  3.800980e-02    6.775296e-03   6.657416e-03
  3.854160e-02    6.477927e-03   6.361918e-03
  3.907340e-02    1.001451e-04   8.695853e-11
  3.960520e-02    1.001491e-04   9.373374e-11
  4.013700e-02    6.866585e-03   6.748643e-03
  4.066879e-02    1.001573e-04   9.335206e-11
  4.120059e-02    1.345368e-02   9.386801e-03
  4.173239e-02    7.055413e-03   6.936763e-03
  4.226419e-02    1.001698e-04   9.995008e-11
  4.279598e-02    7.306223e-03   7.186353e-03
  4.332778e-02    1.001785e-04   1.048696e-10
  4.385958e-02    1.001830e-04   1.018940e-10
  4.439138e-02    1.401371e-02   9.778950e-03
  4.492318e-02    1.001918e-04   1.059831e-10
  4.545497e-02    1.001964e-04   1.090353e-10
  4.598677e-02    1.002011e-04   1.110583e-10
  4.651857e-02    1.002057e-04   1.097350e-10
  4.705037e-02    1.002105e-04   1.166916e-10
  4.758216e-02    1.002153e-04   1.143479e-10
  4.811396e-02    1.002201e-04   1.160101e-10
  4.864576e-02    1.002249e-04   1.180926e-10
  4.917756e-02    1.002299e-04   1.254650e-10
  4.970936e-02    7.310665e-03   7.192796e-03
  5.024115e-02    7.416297e-03   7.298073e-03
  5.077295e-02    1.002450e-04   1.260898e-10
  5.130475e-02    1.002502e-04   1.336145e-10
  5.183655e-02    1.002556e-04   1.360587e-10
  5.236834e-02    1.002609e-04   1.343886e-10
  5.290014e-02    1.002662e-04   1.378996e-10
  5.343194e-02    7.313337e-03   7.196734e-03
  5.396374e-02    1.002771e-04   1.417827e-10
  5.449554e-02    1.002826e-04   1.424958e-10
  5.502733e-02    1.002883e-04   1.461791e-10
  5.555913e-02    1.002939e-04   1.415363e-10
  5.609093e-02    1.002994e-04   1.446423e-10
  5.662273e-02    1.003052e-04   1.496911e-10
  5.715452e-02    7.264673e-03   7.149723e-03
  5.768632e-02    1.003169e-04   1.461568e-10
  5.821812e-02    1.003227e-04   1.479677e-10
  5.874992e-02    1.003284e-04   1.596891e-10
  5.928172e-02    1.003345e-04   1.756426e-10
  5.981351e-02    1.003406e-04   1.820473e-10
  6.034531e-02    1.330252e-02   1.313756e-02
  6.087711e-02    1.003526e-04   2.172731e-10
  6.140891e-02    1.003590e-04   2.310569e-10
  6.194070e-02    1.003652e-04   2.304971e-10
  6.247250e-02    1.003716e-04   2.690071e-10
  6.300430e-02    1.003782e-04   2.914673e-10
  6.353610e-02    1.003845e-04   2.920005e-10
  6.406790e-02    1.003906e-04   2.997473e-10
  6.459969e-02    1.003972e-04   3.973655e-10
  6.513149e-02    1.004043e-04   4.099532e-10
  6.566329e-02    1.004106e-04   4.600843e-10
  6.619509e-02    1.004167e-04   5.402617e-10
  6.672689e-02    1.004239e-04   1.047836e-09
