# == pyFAI calibration ==
# Distance Sample to Detector: 4.500115234375 m
# PONI: 4.721e-01, 4.464e-01 m
# Rotations: 0.000000 0.000000 0.000000 rad
# 
# == Fit2d calibration ==
# Distance Sample-beamCenter: 4500.115 mm
# Center: x=59.522, y=62.942 pix
# Tilt: 0.000 deg  TiltPlanRot: 0.000 deg
# 
# Detector Detector	 Spline= None	 PixelSize= 7.500e-03, 7.500e-03 m
#    Detector has a mask: False 
#    Detector has a dark current: False 
#    detector has a flat field: False 
# 
# Wavelength: 4.9974700808525085e-09 m
# Mask applied: user provided
# Dark current applied: False
# Flat field applied: False
# Polarization factor: None
# Normalization factor: 1.0
# --> C:/Users/lutzbueno_v/Documents/GitHub/pipeline_SANS1/Data_Py/analysis/det_4p5\integration/integ_080366_Q_4p5m.dat
#       q_nm^-1              I           sigma 
  1.339199e-02    7.155080e+00   1.855747e+00
  1.487312e-02    5.858385e+00   1.832859e+00
  1.635425e-02    3.000772e+00   4.999579e-01
  1.783537e-02    2.824391e+00   4.191816e-01
  1.931650e-02    1.625594e+00   3.293537e-01
  2.079763e-02    1.689595e+00   2.370385e-01
  2.227876e-02    1.383651e+00   2.009792e-01
  2.375988e-02    1.212218e+00   1.523596e-01
  2.524101e-02    9.614025e-01   1.414102e-01
  2.672214e-02    7.293608e-01   1.195571e-01
  2.820327e-02    9.007207e-01   1.369783e-01
  2.968439e-02    7.055544e-01   1.046953e-01
  3.116552e-02    6.872538e-01   1.039935e-01
  3.264665e-02    5.763972e-01   1.007886e-01
  3.412778e-02    6.586741e-01   9.783142e-02
  3.560890e-02    5.340306e-01   7.864130e-02
  3.709003e-02    4.817025e-01   7.579870e-02
  3.857116e-02    3.380446e-01   5.859849e-02
  4.005229e-02    5.538394e-01   8.084385e-02
  4.153341e-02    3.049190e-01   5.499578e-02
  4.301454e-02    3.339904e-01   5.894497e-02
  4.449567e-02    4.157377e-01   6.111162e-02
  4.597679e-02    3.783783e-01   6.555531e-02
  4.745792e-02    4.353361e-01   6.272722e-02
  4.893905e-02    3.934862e-01   6.463585e-02
  5.042018e-02    3.181472e-01   5.503497e-02
  5.190130e-02    3.794166e-01   6.005844e-02
  5.338243e-02    3.837142e-01   5.995829e-02
  5.486356e-02    3.255626e-01   5.500654e-02
  5.634469e-02    2.202550e-01   4.249078e-02
  5.782581e-02    2.181618e-01   4.240923e-02
  5.930694e-02    2.471698e-01   4.299839e-02
  6.078807e-02    3.763851e-01   5.209152e-02
  6.226920e-02    2.996818e-01   4.505749e-02
  6.375032e-02    3.521725e-01   5.118837e-02
  6.523145e-02    2.312271e-01   4.005659e-02
  6.671258e-02    2.850628e-01   4.514254e-02
  6.819370e-02    2.933396e-01   4.779747e-02
  6.967483e-02    2.662020e-01   4.290473e-02
  7.115596e-02    2.948209e-01   4.607781e-02
  7.263709e-02    2.735960e-01   4.291525e-02
  7.411821e-02    2.964882e-01   4.208334e-02
  7.559934e-02    2.173073e-01   3.807542e-02
  7.708047e-02    2.048273e-01   3.472934e-02
  7.856160e-02    2.788165e-01   4.434622e-02
  8.004272e-02    2.140224e-01   3.235806e-02
  8.152385e-02    2.144478e-01   3.396230e-02
  8.300498e-02    2.715120e-01   4.053526e-02
  8.448611e-02    2.395368e-01   3.684594e-02
  8.596723e-02    2.462474e-01   3.776229e-02
  8.744836e-02    2.275342e-01   3.543732e-02
  8.892949e-02    2.099876e-01   3.480470e-02
  9.041061e-02    2.298388e-01   3.553949e-02
  9.189174e-02    2.252322e-01   3.565557e-02
  9.337287e-02    1.852865e-01   3.158467e-02
  9.485400e-02    2.328314e-01   3.335569e-02
  9.633512e-02    1.549114e-01   2.665669e-02
  9.781625e-02    2.217141e-01   3.166042e-02
  9.929738e-02    1.844967e-01   2.886663e-02
  1.007785e-01    1.935306e-01   2.966024e-02
  1.022596e-01    1.639880e-01   2.633348e-02
  1.037408e-01    2.125258e-01   3.201848e-02
  1.052219e-01    1.805456e-01   2.968796e-02
  1.067030e-01    2.266585e-01   3.169260e-02
  1.081841e-01    1.997738e-01   3.072286e-02
  1.096653e-01    1.708582e-01   2.507082e-02
  1.111464e-01    2.239740e-01   3.196879e-02
  1.126275e-01    1.639949e-01   2.525033e-02
  1.141087e-01    2.269415e-01   3.271453e-02
  1.155898e-01    1.856948e-01   2.617888e-02
  1.170709e-01    1.689396e-01   2.691570e-02
  1.185520e-01    1.761692e-01   2.647580e-02
  1.200332e-01    1.326633e-01   2.274022e-02
  1.215143e-01    1.941975e-01   2.634658e-02
  1.229954e-01    1.110510e-01   2.071462e-02
  1.244765e-01    1.565272e-01   2.586908e-02
  1.259577e-01    1.832219e-01   2.711556e-02
  1.274388e-01    1.500667e-01   2.511519e-02
  1.289199e-01    1.615345e-01   2.525179e-02
  1.304011e-01    1.384823e-01   2.744931e-02
  1.318822e-01    1.421598e-01   2.668122e-02
  1.333633e-01    1.777405e-01   2.868258e-02
  1.348444e-01    1.927118e-01   3.508995e-02
  1.363256e-01    1.334964e-01   2.612019e-02
  1.378067e-01    1.293100e-01   2.751183e-02
  1.392878e-01    1.138763e-01   2.361711e-02
  1.407689e-01    1.497785e-01   2.973456e-02
  1.422501e-01    1.421959e-01   3.168063e-02
  1.437312e-01    8.061011e-02   2.252522e-02
  1.452123e-01    1.940830e-01   3.966011e-02
  1.466935e-01    1.480176e-01   3.432322e-02
  1.481746e-01    1.596397e-01   3.502025e-02
  1.496557e-01    1.397891e-01   3.279378e-02
  1.511368e-01    1.311148e-01   3.428572e-02
  1.526180e-01    1.314138e-01   3.817596e-02
  1.540991e-01    1.023802e-01   3.103248e-02
  1.555802e-01    1.372357e-01   3.580349e-02
  1.570613e-01    1.593426e-01   4.278646e-02
  1.585425e-01    7.413599e-02   2.946155e-02
  1.600236e-01    1.297982e-01   4.301549e-02
  1.615047e-01    2.159053e-01   5.223677e-02
  1.629859e-01    9.194044e-02   3.623067e-02
  1.644670e-01    1.105961e-01   4.591440e-02
  1.659481e-01    5.412727e-02   3.075867e-02
  1.674292e-01    9.518980e-02   4.105112e-02
  1.689104e-01    6.174849e-02   3.497922e-02
  1.703915e-01    9.354944e-02   4.517128e-02
  1.718726e-01    1.543657e-01   6.948121e-02
  1.733537e-01    1.028995e-04   1.872646e-09
  1.748349e-01    6.651486e-02   4.608723e-02
  1.763160e-01    7.932529e-02   5.462006e-02
  1.777971e-01    4.490293e-02   4.447705e-02
  1.792783e-01    1.031041e-04   3.520928e-09
  1.807594e-01    1.935096e-01   1.379251e-01
  1.822405e-01    7.381640e-02   7.216325e-02
  1.837216e-01    2.582312e-01   1.311477e-01
  1.852028e-01    1.148819e-01   1.099903e-01
  1.866839e-01    3.101904e-01   1.522746e-01
  1.881650e-01    1.034328e-04   1.122491e-08
  1.896461e-01    1.035016e-04   1.410226e-08
