# == pyFAI calibration ==
# Distance Sample to Detector: 4.500115234375 m
# PONI: 4.721e-01, 4.464e-01 m
# Rotations: 0.000000 0.000000 0.000000 rad
# 
# == Fit2d calibration ==
# Distance Sample-beamCenter: 4500.115 mm
# Center: x=59.522, y=62.942 pix
# Tilt: 0.000 deg  TiltPlanRot: 0.000 deg
# 
# Detector Detector	 Spline= None	 PixelSize= 7.500e-03, 7.500e-03 m
#    Detector has a mask: False 
#    Detector has a dark current: False 
#    detector has a flat field: False 
# 
# Wavelength: 4.9974700808525085e-09 m
# Mask applied: user provided
# Dark current applied: False
# Flat field applied: False
# Polarization factor: None
# Normalization factor: 1.0
# --> C:/Users/lutzbueno_v/Documents/GitHub/pipeline_SANS1/Data_Py/analysis/det_4p5\integration/integ_080395_B_4p5m.dat
#       q_nm^-1              I           sigma 
  1.339199e-02    3.185164e+02   2.028387e+01
  1.487312e-02    2.782968e+02   1.748764e+01
  1.635425e-02    3.482707e+02   1.180097e+01
  1.783537e-02    3.301585e+02   1.223877e+01
  1.931650e-02    3.276402e+02   6.643306e+00
  2.079763e-02    3.402498e+02   5.401433e+00
  2.227876e-02    3.389249e+02   3.540581e+00
  2.375988e-02    3.222105e+02   3.728716e+00
  2.524101e-02    3.224883e+02   3.776971e+00
  2.672214e-02    3.211493e+02   2.970536e+00
  2.820327e-02    3.182566e+02   3.143925e+00
  2.968439e-02    3.186266e+02   2.766006e+00
  3.116552e-02    3.161860e+02   2.790702e+00
  3.264665e-02    3.068393e+02   2.816346e+00
  3.412778e-02    3.168226e+02   3.102066e+00
  3.560890e-02    3.138168e+02   3.013504e+00
  3.709003e-02    3.103792e+02   2.798079e+00
  3.857116e-02    3.156068e+02   2.929882e+00
  4.005229e-02    3.185894e+02   2.959813e+00
  4.153341e-02    3.125216e+02   2.604339e+00
  4.301454e-02    3.090088e+02   2.617200e+00
  4.449567e-02    3.093252e+02   2.834508e+00
  4.597679e-02    3.219715e+02   2.513056e+00
  4.745792e-02    3.080918e+02   2.420715e+00
  4.893905e-02    3.024619e+02   2.644675e+00
  5.042018e-02    3.128402e+02   2.543381e+00
  5.190130e-02    3.059698e+02   2.432448e+00
  5.338243e-02    3.100719e+02   2.574776e+00
  5.486356e-02    3.123292e+02   2.482803e+00
  5.634469e-02    3.069230e+02   2.432307e+00
  5.782581e-02    3.038486e+02   2.622091e+00
  5.930694e-02    3.065578e+02   2.186188e+00
  6.078807e-02    3.047702e+02   2.385047e+00
  6.226920e-02    3.031213e+02   2.120816e+00
  6.375032e-02    3.028677e+02   2.162117e+00
  6.523145e-02    3.013732e+02   2.105313e+00
  6.671258e-02    3.032728e+02   2.291373e+00
  6.819370e-02    3.012914e+02   1.965379e+00
  6.967483e-02    3.029357e+02   2.355213e+00
  7.115596e-02    2.998175e+02   2.192013e+00
  7.263709e-02    3.036506e+02   2.113194e+00
  7.411821e-02    3.028965e+02   2.032037e+00
  7.559934e-02    3.028866e+02   2.060499e+00
  7.708047e-02    3.001989e+02   2.019333e+00
  7.856160e-02    2.962504e+02   2.056816e+00
  8.004272e-02    3.002192e+02   1.887120e+00
  8.152385e-02    2.988996e+02   2.302664e+00
  8.300498e-02    3.008394e+02   2.015082e+00
  8.448611e-02    2.987006e+02   1.916751e+00
  8.596723e-02    2.998214e+02   1.915086e+00
  8.744836e-02    2.995346e+02   1.948906e+00
  8.892949e-02    2.976928e+02   1.747723e+00
  9.041061e-02    2.978027e+02   1.738954e+00
  9.189174e-02    2.989434e+02   1.843125e+00
  9.337287e-02    2.945280e+02   1.885811e+00
  9.485400e-02    2.950658e+02   1.863704e+00
  9.633512e-02    2.976046e+02   1.962380e+00
  9.781625e-02    2.957580e+02   1.962393e+00
  9.929738e-02    2.943526e+02   1.859366e+00
  1.007785e-01    2.950642e+02   2.019994e+00
  1.022596e-01    2.927122e+02   1.701987e+00
  1.037408e-01    2.903498e+02   1.702649e+00
  1.052219e-01    2.934202e+02   1.754490e+00
  1.067030e-01    2.919974e+02   1.722056e+00
  1.081841e-01    2.918578e+02   1.664842e+00
  1.096653e-01    2.913318e+02   1.779807e+00
  1.111464e-01    2.929414e+02   1.594115e+00
  1.126275e-01    2.893203e+02   1.746053e+00
  1.141087e-01    2.896618e+02   1.720626e+00
  1.155898e-01    2.909901e+02   1.659305e+00
  1.170709e-01    2.928010e+02   1.575073e+00
  1.185520e-01    2.896893e+02   1.667787e+00
  1.200332e-01    2.873044e+02   1.644277e+00
  1.215143e-01    2.848098e+02   1.606915e+00
  1.229954e-01    2.866063e+02   1.739923e+00
  1.244765e-01    2.890004e+02   1.553095e+00
  1.259577e-01    2.878437e+02   1.799886e+00
  1.274388e-01    2.852650e+02   1.584487e+00
  1.289199e-01    2.855896e+02   1.731207e+00
  1.304011e-01    2.873587e+02   1.704364e+00
  1.318822e-01    2.850557e+02   1.826971e+00
  1.333633e-01    2.857311e+02   1.757183e+00
  1.348444e-01    2.813572e+02   1.978115e+00
  1.363256e-01    2.904616e+02   2.498914e+00
  1.378067e-01    2.880923e+02   2.287946e+00
  1.392878e-01    2.883115e+02   2.443721e+00
  1.407689e-01    2.889601e+02   2.600738e+00
  1.422501e-01    2.870300e+02   2.284883e+00
  1.437312e-01    2.843496e+02   2.470227e+00
  1.452123e-01    2.852708e+02   2.094541e+00
  1.466935e-01    2.853917e+02   2.547008e+00
  1.481746e-01    2.794088e+02   2.499533e+00
  1.496557e-01    2.775333e+02   2.284654e+00
  1.511368e-01    2.780609e+02   2.643512e+00
  1.526180e-01    2.793142e+02   2.927559e+00
  1.540991e-01    2.760757e+02   2.741271e+00
  1.555802e-01    2.754547e+02   3.140478e+00
  1.570613e-01    2.752040e+02   3.212998e+00
  1.585425e-01    2.760124e+02   2.895055e+00
  1.600236e-01    2.750187e+02   3.482038e+00
  1.615047e-01    2.753092e+02   3.847539e+00
  1.629859e-01    2.729695e+02   4.064590e+00
  1.644670e-01    2.704165e+02   4.344970e+00
  1.659481e-01    2.694117e+02   3.891591e+00
  1.674292e-01    2.699222e+02   3.571444e+00
  1.689104e-01    2.715972e+02   4.860646e+00
  1.703915e-01    2.642701e+02   4.471631e+00
  1.718726e-01    2.667941e+02   5.749688e+00
  1.733537e-01    2.650103e+02   5.764730e+00
  1.748349e-01    2.609585e+02   8.745070e+00
  1.763160e-01    2.695016e+02   6.502687e+00
  1.777971e-01    2.602237e+02   8.838599e+00
  1.792783e-01    2.693080e+02   7.833530e+00
  1.807594e-01    2.645332e+02   6.992432e+00
  1.822405e-01    2.723975e+02   9.801762e+00
  1.837216e-01    2.796666e+02   9.297219e+00
  1.852028e-01    2.699862e+02   9.957917e+00
  1.866839e-01    2.556407e+02   1.244003e+01
  1.881650e-01    2.501005e+02   2.088036e+01
  1.896461e-01    1.959630e+02   2.747607e+01
