# == pyFAI calibration ==
# Distance Sample to Detector: 4.500115234375 m
# PONI: 4.721e-01, 4.464e-01 m
# Rotations: 0.000000 0.000000 0.000000 rad
# 
# == Fit2d calibration ==
# Distance Sample-beamCenter: 4500.115 mm
# Center: x=59.522, y=62.942 pix
# Tilt: 0.000 deg  TiltPlanRot: 0.000 deg
# 
# Detector Detector	 Spline= None	 PixelSize= 7.500e-03, 7.500e-03 m
#    Detector has a mask: False 
#    Detector has a dark current: False 
#    detector has a flat field: False 
# 
# Wavelength: 4.9974700808525085e-09 m
# Mask applied: user provided
# Dark current applied: False
# Flat field applied: False
# Polarization factor: None
# Normalization factor: 1.0
# --> C:/Users/lutzbueno_v/Documents/GitHub/pipeline_SANS1/Data_Py/analysis/det_4p5\integration/integ_080436_H_4p5m.dat
#       q_nm^-1              I           sigma 
  1.339199e-02    7.652089e+02   3.985931e+01
  1.487312e-02    5.997933e+02   2.911893e+01
  1.635425e-02    6.913886e+02   3.049168e+01
  1.783537e-02    5.916492e+02   2.371962e+01
  1.931650e-02    5.426908e+02   1.301462e+01
  2.079763e-02    5.185670e+02   8.790663e+00
  2.227876e-02    4.941041e+02   6.756658e+00
  2.375988e-02    4.506252e+02   6.388134e+00
  2.524101e-02    4.374399e+02   5.715025e+00
  2.672214e-02    4.143818e+02   4.600852e+00
  2.820327e-02    4.021365e+02   3.801674e+00
  2.968439e-02    3.903093e+02   4.103862e+00
  3.116552e-02    3.827397e+02   3.262793e+00
  3.264665e-02    3.713437e+02   4.400283e+00
  3.412778e-02    3.720150e+02   3.598462e+00
  3.560890e-02    3.598454e+02   3.133492e+00
  3.709003e-02    3.523453e+02   3.173714e+00
  3.857116e-02    3.540233e+02   2.835884e+00
  4.005229e-02    3.545853e+02   3.230672e+00
  4.153341e-02    3.420154e+02   2.726113e+00
  4.301454e-02    3.398740e+02   2.853652e+00
  4.449567e-02    3.399465e+02   2.600652e+00
  4.597679e-02    3.418378e+02   2.781433e+00
  4.745792e-02    3.346434e+02   2.861731e+00
  4.893905e-02    3.242029e+02   2.575203e+00
  5.042018e-02    3.341801e+02   3.057923e+00
  5.190130e-02    3.288299e+02   2.701556e+00
  5.338243e-02    3.282776e+02   2.521802e+00
  5.486356e-02    3.285597e+02   2.534199e+00
  5.634469e-02    3.221476e+02   2.419911e+00
  5.782581e-02    3.207194e+02   2.780133e+00
  5.930694e-02    3.267220e+02   2.334780e+00
  6.078807e-02    3.211322e+02   2.502768e+00
  6.226920e-02    3.197346e+02   2.116350e+00
  6.375032e-02    3.173563e+02   2.478443e+00
  6.523145e-02    3.210786e+02   2.258190e+00
  6.671258e-02    3.169725e+02   2.371141e+00
  6.819370e-02    3.194518e+02   2.311698e+00
  6.967483e-02    3.150377e+02   2.237880e+00
  7.115596e-02    3.129807e+02   1.879498e+00
  7.263709e-02    3.158381e+02   2.179032e+00
  7.411821e-02    3.124784e+02   2.204434e+00
  7.559934e-02    3.153367e+02   1.926888e+00
  7.708047e-02    3.133086e+02   2.047305e+00
  7.856160e-02    3.084240e+02   1.937433e+00
  8.004272e-02    3.147384e+02   2.045342e+00
  8.152385e-02    3.096834e+02   2.347335e+00
  8.300498e-02    3.145638e+02   1.940383e+00
  8.448611e-02    3.107387e+02   2.038546e+00
  8.596723e-02    3.122697e+02   2.183975e+00
  8.744836e-02    3.104253e+02   1.872704e+00
  8.892949e-02    3.128374e+02   1.931374e+00
  9.041061e-02    3.090191e+02   1.853696e+00
  9.189174e-02    3.113215e+02   1.968250e+00
  9.337287e-02    3.095757e+02   1.807437e+00
  9.485400e-02    3.057869e+02   1.946227e+00
  9.633512e-02    3.089518e+02   1.888565e+00
  9.781625e-02    3.060239e+02   1.905327e+00
  9.929738e-02    3.054902e+02   1.896744e+00
  1.007785e-01    3.069683e+02   1.845306e+00
  1.022596e-01    3.047967e+02   1.702588e+00
  1.037408e-01    3.018784e+02   1.801263e+00
  1.052219e-01    3.027274e+02   1.752740e+00
  1.067030e-01    3.027686e+02   1.768965e+00
  1.081841e-01    3.032996e+02   1.686699e+00
  1.096653e-01    3.022045e+02   1.734776e+00
  1.111464e-01    3.027194e+02   1.739337e+00
  1.126275e-01    3.052851e+02   1.681089e+00
  1.141087e-01    3.023659e+02   1.797715e+00
  1.155898e-01    3.007185e+02   1.801384e+00
  1.170709e-01    3.026522e+02   1.568914e+00
  1.185520e-01    3.030286e+02   1.607743e+00
  1.200332e-01    2.999068e+02   1.587902e+00
  1.215143e-01    2.982117e+02   1.639680e+00
  1.229954e-01    2.978331e+02   1.732977e+00
  1.244765e-01    3.023540e+02   1.563061e+00
  1.259577e-01    2.977132e+02   1.755020e+00
  1.274388e-01    2.963506e+02   1.708493e+00
  1.289199e-01    2.966231e+02   1.776235e+00
  1.304011e-01    2.993080e+02   1.732698e+00
  1.318822e-01    2.987300e+02   1.946276e+00
  1.333633e-01    2.950180e+02   1.679576e+00
  1.348444e-01    2.946780e+02   2.040810e+00
  1.363256e-01    3.004178e+02   2.761186e+00
  1.378067e-01    3.002389e+02   2.382101e+00
  1.392878e-01    2.988882e+02   2.348379e+00
  1.407689e-01    3.012174e+02   2.417847e+00
  1.422501e-01    2.951918e+02   2.688806e+00
  1.437312e-01    2.941994e+02   2.384077e+00
  1.452123e-01    2.935839e+02   2.482136e+00
  1.466935e-01    2.908947e+02   2.808531e+00
  1.481746e-01    2.900271e+02   2.509797e+00
  1.496557e-01    2.861860e+02   2.471752e+00
  1.511368e-01    2.882284e+02   3.035956e+00
  1.526180e-01    2.903922e+02   3.011294e+00
  1.540991e-01    2.892913e+02   2.989173e+00
  1.555802e-01    2.872810e+02   3.341299e+00
  1.570613e-01    2.844977e+02   3.311241e+00
  1.585425e-01    2.881551e+02   3.837493e+00
  1.600236e-01    2.877949e+02   4.087198e+00
  1.615047e-01    2.891624e+02   3.973924e+00
  1.629859e-01    2.842820e+02   3.957275e+00
  1.644670e-01    2.802197e+02   4.370875e+00
  1.659481e-01    2.838557e+02   3.746898e+00
  1.674292e-01    2.762937e+02   3.754959e+00
  1.689104e-01    2.816053e+02   4.980187e+00
  1.703915e-01    2.738027e+02   4.646024e+00
  1.718726e-01    2.791619e+02   5.026352e+00
  1.733537e-01    2.739478e+02   6.300758e+00
  1.748349e-01    2.698586e+02   8.544023e+00
  1.763160e-01    2.816634e+02   6.202708e+00
  1.777971e-01    2.670340e+02   9.687841e+00
  1.792783e-01    2.739992e+02   7.928353e+00
  1.807594e-01    2.818120e+02   5.661833e+00
  1.822405e-01    2.750514e+02   7.300910e+00
  1.837216e-01    2.813876e+02   8.862976e+00
  1.852028e-01    2.826131e+02   5.712054e+00
  1.866839e-01    2.601891e+02   1.335577e+01
  1.881650e-01    2.583752e+02   1.955308e+01
  1.896461e-01    1.894079e+02   3.078374e+01
