# == pyFAI calibration ==
# Distance Sample to Detector: 4.500115234375 m
# PONI: 4.721e-01, 4.464e-01 m
# Rotations: 0.000000 0.000000 0.000000 rad
# 
# == Fit2d calibration ==
# Distance Sample-beamCenter: 4500.115 mm
# Center: x=59.522, y=62.942 pix
# Tilt: 0.000 deg  TiltPlanRot: 0.000 deg
# 
# Detector Detector	 Spline= None	 PixelSize= 7.500e-03, 7.500e-03 m
#    Detector has a mask: False 
#    Detector has a dark current: False 
#    detector has a flat field: False 
# 
# Wavelength: 4.9974700808525085e-09 m
# Mask applied: user provided
# Dark current applied: False
# Flat field applied: False
# Polarization factor: None
# Normalization factor: 1.0
# --> C:/Users/lutzbueno_v/Documents/GitHub/pipeline_SANS1/Data_Py/analysis/det_4p5\integration/integ_080392_U_4p5m.dat
#       q_nm^-1              I           sigma 
  1.339199e-02    1.615663e+01   1.418104e+00
  1.487312e-02    1.257408e+01   1.091578e+00
  1.635425e-02    1.370047e+01   7.419097e-01
  1.783537e-02    1.176826e+01   7.896243e-01
  1.931650e-02    1.105389e+01   7.377413e-01
  2.079763e-02    1.038201e+01   5.131505e-01
  2.227876e-02    1.085616e+01   4.526415e-01
  2.375988e-02    9.158736e+00   4.289573e-01
  2.524101e-02    9.888309e+00   3.911793e-01
  2.672214e-02    8.073253e+00   3.136402e-01
  2.820327e-02    8.256224e+00   3.881874e-01
  2.968439e-02    8.449675e+00   3.710566e-01
  3.116552e-02    8.231445e+00   3.768186e-01
  3.264665e-02    7.674396e+00   3.163619e-01
  3.412778e-02    7.350201e+00   2.659233e-01
  3.560890e-02    7.355499e+00   3.169349e-01
  3.709003e-02    6.996460e+00   3.114391e-01
  3.857116e-02    7.110008e+00   3.045758e-01
  4.005229e-02    7.081336e+00   2.935038e-01
  4.153341e-02    7.381629e+00   3.100086e-01
  4.301454e-02    6.834212e+00   2.860214e-01
  4.449567e-02    6.629463e+00   2.587368e-01
  4.597679e-02    6.993602e+00   2.851024e-01
  4.745792e-02    6.346879e+00   2.811927e-01
  4.893905e-02    6.650603e+00   2.593387e-01
  5.042018e-02    7.026544e+00   2.821755e-01
  5.190130e-02    6.746942e+00   2.433230e-01
  5.338243e-02    6.757374e+00   2.435580e-01
  5.486356e-02    6.641747e+00   2.209015e-01
  5.634469e-02    6.654157e+00   2.095782e-01
  5.782581e-02    6.594785e+00   2.574318e-01
  5.930694e-02    6.708902e+00   2.458902e-01
  6.078807e-02    6.397400e+00   2.248989e-01
  6.226920e-02    6.868523e+00   2.278166e-01
  6.375032e-02    6.382786e+00   2.110775e-01
  6.523145e-02    6.587709e+00   2.424684e-01
  6.671258e-02    6.025423e+00   1.966032e-01
  6.819370e-02    6.715731e+00   2.423101e-01
  6.967483e-02    6.273876e+00   1.982612e-01
  7.115596e-02    6.591605e+00   2.046671e-01
  7.263709e-02    6.469043e+00   2.073094e-01
  7.411821e-02    6.140926e+00   1.924275e-01
  7.559934e-02    6.498141e+00   2.058618e-01
  7.708047e-02    6.196559e+00   2.154353e-01
  7.856160e-02    6.520054e+00   1.888267e-01
  8.004272e-02    6.331543e+00   1.971980e-01
  8.152385e-02    6.341702e+00   2.030587e-01
  8.300498e-02    6.373044e+00   1.829142e-01
  8.448611e-02    6.394585e+00   1.839007e-01
  8.596723e-02    6.724861e+00   1.919877e-01
  8.744836e-02    6.260387e+00   1.930358e-01
  8.892949e-02    6.507061e+00   1.945159e-01
  9.041061e-02    6.464551e+00   1.880493e-01
  9.189174e-02    6.007420e+00   1.869183e-01
  9.337287e-02    6.229994e+00   1.863126e-01
  9.485400e-02    6.085481e+00   1.817392e-01
  9.633512e-02    6.033201e+00   1.504930e-01
  9.781625e-02    6.295333e+00   1.716417e-01
  9.929738e-02    6.279755e+00   1.722396e-01
  1.007785e-01    6.327152e+00   1.879664e-01
  1.022596e-01    6.618118e+00   1.758575e-01
  1.037408e-01    6.156159e+00   1.687151e-01
  1.052219e-01    6.095062e+00   1.740510e-01
  1.067030e-01    6.213452e+00   1.532073e-01
  1.081841e-01    6.292365e+00   1.642107e-01
  1.096653e-01    6.152246e+00   1.733466e-01
  1.111464e-01    6.200090e+00   1.581948e-01
  1.126275e-01    6.302310e+00   1.552021e-01
  1.141087e-01    6.007576e+00   1.595625e-01
  1.155898e-01    6.024297e+00   1.650650e-01
  1.170709e-01    6.432923e+00   1.609754e-01
  1.185520e-01    5.986853e+00   1.510200e-01
  1.200332e-01    6.020439e+00   1.569950e-01
  1.215143e-01    5.870979e+00   1.576041e-01
  1.229954e-01    5.912595e+00   1.652694e-01
  1.244765e-01    6.093129e+00   1.581151e-01
  1.259577e-01    6.059450e+00   1.726206e-01
  1.274388e-01    6.166293e+00   1.568855e-01
  1.289199e-01    5.953885e+00   1.451265e-01
  1.304011e-01    5.933571e+00   1.714149e-01
  1.318822e-01    6.135674e+00   1.690287e-01
  1.333633e-01    6.173504e+00   1.584173e-01
  1.348444e-01    6.164027e+00   1.920080e-01
  1.363256e-01    6.393654e+00   2.002368e-01
  1.378067e-01    5.799372e+00   1.805050e-01
  1.392878e-01    5.743473e+00   1.814887e-01
  1.407689e-01    5.883985e+00   1.990470e-01
  1.422501e-01    5.956107e+00   2.223094e-01
  1.437312e-01    6.139359e+00   1.943741e-01
  1.452123e-01    6.236683e+00   2.297586e-01
  1.466935e-01    5.857983e+00   2.119649e-01
  1.481746e-01    6.023118e+00   2.141493e-01
  1.496557e-01    5.710274e+00   2.391233e-01
  1.511368e-01    5.468104e+00   2.293595e-01
  1.526180e-01    5.984567e+00   2.621054e-01
  1.540991e-01    5.912254e+00   2.498206e-01
  1.555802e-01    5.770729e+00   2.396733e-01
  1.570613e-01    6.028940e+00   2.626848e-01
  1.585425e-01    6.021999e+00   2.839152e-01
  1.600236e-01    6.096250e+00   3.112195e-01
  1.615047e-01    5.732799e+00   2.642406e-01
  1.629859e-01    5.725133e+00   2.510584e-01
  1.644670e-01    5.904014e+00   2.815700e-01
  1.659481e-01    4.862703e+00   3.663503e-01
  1.674292e-01    5.953048e+00   3.309185e-01
  1.689104e-01    5.630874e+00   3.322978e-01
  1.703915e-01    5.957819e+00   4.375352e-01
  1.718726e-01    5.965327e+00   4.059564e-01
  1.733537e-01    6.262169e+00   3.942457e-01
  1.748349e-01    4.616090e+00   3.297021e-01
  1.763160e-01    5.308428e+00   4.914131e-01
  1.777971e-01    5.286915e+00   4.133591e-01
  1.792783e-01    5.103654e+00   5.944818e-01
  1.807594e-01    5.802587e+00   6.339937e-01
  1.822405e-01    4.054631e+00   7.449536e-01
  1.837216e-01    6.281742e+00   4.862478e-01
  1.852028e-01    5.969083e+00   7.521117e-01
  1.866839e-01    4.858516e+00   6.314765e-01
  1.881650e-01    5.378506e+00   5.481804e-01
  1.896461e-01    1.725026e+00   2.864706e-01
