# == pyFAI calibration ==
# Distance Sample to Detector: 4.500115234375 m
# PONI: 4.721e-01, 4.464e-01 m
# Rotations: 0.000000 0.000000 0.000000 rad
# 
# == Fit2d calibration ==
# Distance Sample-beamCenter: 4500.115 mm
# Center: x=59.522, y=62.942 pix
# Tilt: 0.000 deg  TiltPlanRot: 0.000 deg
# 
# Detector Detector	 Spline= None	 PixelSize= 7.500e-03, 7.500e-03 m
#    Detector has a mask: False 
#    Detector has a dark current: False 
#    detector has a flat field: False 
# 
# Wavelength: 4.9974700808525085e-09 m
# Mask applied: user provided
# Dark current applied: False
# Flat field applied: False
# Polarization factor: None
# Normalization factor: 1.0
# --> C:/Users/lutzbueno_v/Documents/GitHub/pipeline_SANS1/Data_Py/analysis/det_4p5\integration/integ_080399_F_4p5m.dat
#       q_nm^-1              I           sigma 
  1.339199e-02    4.496929e+02   2.814763e+01
  1.487312e-02    3.950358e+02   2.634774e+01
  1.635425e-02    4.898826e+02   1.686866e+01
  1.783537e-02    4.671705e+02   1.558145e+01
  1.931650e-02    4.608621e+02   9.392478e+00
  2.079763e-02    4.766832e+02   6.017154e+00
  2.227876e-02    4.720938e+02   5.044238e+00
  2.375988e-02    4.582062e+02   4.510758e+00
  2.524101e-02    4.546267e+02   4.670613e+00
  2.672214e-02    4.433335e+02   4.367087e+00
  2.820327e-02    4.424168e+02   4.501047e+00
  2.968439e-02    4.343461e+02   3.647732e+00
  3.116552e-02    4.382534e+02   3.595829e+00
  3.264665e-02    4.271423e+02   3.344101e+00
  3.412778e-02    4.353347e+02   4.539312e+00
  3.560890e-02    4.273799e+02   3.802966e+00
  3.709003e-02    4.240464e+02   3.527651e+00
  3.857116e-02    4.319455e+02   3.861130e+00
  4.005229e-02    4.309364e+02   3.973634e+00
  4.153341e-02    4.258808e+02   3.204777e+00
  4.301454e-02    4.189349e+02   2.931292e+00
  4.449567e-02    4.305314e+02   3.486166e+00
  4.597679e-02    4.277548e+02   2.965459e+00
  4.745792e-02    4.267592e+02   3.699979e+00
  4.893905e-02    4.163090e+02   3.621941e+00
  5.042018e-02    4.230095e+02   3.573549e+00
  5.190130e-02    4.171092e+02   2.985226e+00
  5.338243e-02    4.210498e+02   3.284100e+00
  5.486356e-02    4.228109e+02   3.293988e+00
  5.634469e-02    4.153792e+02   3.277049e+00
  5.782581e-02    4.155238e+02   3.235263e+00
  5.930694e-02    4.234994e+02   2.627167e+00
  6.078807e-02    4.203703e+02   3.222981e+00
  6.226920e-02    4.143809e+02   2.736399e+00
  6.375032e-02    4.156228e+02   2.955090e+00
  6.523145e-02    4.128586e+02   2.735899e+00
  6.671258e-02    4.155031e+02   3.038621e+00
  6.819370e-02    4.156422e+02   2.849943e+00
  6.967483e-02    4.118604e+02   2.881805e+00
  7.115596e-02    4.126117e+02   2.378855e+00
  7.263709e-02    4.144131e+02   2.742719e+00
  7.411821e-02    4.101791e+02   2.625868e+00
  7.559934e-02    4.129951e+02   2.518928e+00
  7.708047e-02    4.146636e+02   2.584105e+00
  7.856160e-02    4.103756e+02   2.547735e+00
  8.004272e-02    4.116718e+02   2.413213e+00
  8.152385e-02    4.102575e+02   2.551752e+00
  8.300498e-02    4.121838e+02   2.521030e+00
  8.448611e-02    4.097976e+02   2.368937e+00
  8.596723e-02    4.124265e+02   2.369537e+00
  8.744836e-02    4.087339e+02   2.476029e+00
  8.892949e-02    4.124584e+02   2.436676e+00
  9.041061e-02    4.060030e+02   2.299915e+00
  9.189174e-02    4.093028e+02   2.379841e+00
  9.337287e-02    4.067656e+02   2.406826e+00
  9.485400e-02    4.072423e+02   2.483090e+00
  9.633512e-02    4.080951e+02   2.439619e+00
  9.781625e-02    4.040378e+02   2.421090e+00
  9.929738e-02    4.027585e+02   2.362795e+00
  1.007785e-01    4.040271e+02   2.494783e+00
  1.022596e-01    4.030319e+02   2.229441e+00
  1.037408e-01    4.031576e+02   2.430225e+00
  1.052219e-01    3.986694e+02   2.367039e+00
  1.067030e-01    4.021664e+02   2.307038e+00
  1.081841e-01    4.002768e+02   2.103966e+00
  1.096653e-01    3.991691e+02   2.208117e+00
  1.111464e-01    3.984505e+02   2.105850e+00
  1.126275e-01    3.999304e+02   2.163845e+00
  1.141087e-01    3.999870e+02   2.304965e+00
  1.155898e-01    3.991692e+02   2.139339e+00
  1.170709e-01    4.006698e+02   1.922233e+00
  1.185520e-01    3.989826e+02   2.215537e+00
  1.200332e-01    3.945493e+02   2.078773e+00
  1.215143e-01    3.937438e+02   2.111517e+00
  1.229954e-01    3.958942e+02   2.218214e+00
  1.244765e-01    3.951508e+02   1.826344e+00
  1.259577e-01    3.944375e+02   2.080774e+00
  1.274388e-01    3.927058e+02   2.176348e+00
  1.289199e-01    3.923972e+02   2.181163e+00
  1.304011e-01    3.948982e+02   2.326879e+00
  1.318822e-01    3.950716e+02   2.540116e+00
  1.333633e-01    3.915423e+02   2.259722e+00
  1.348444e-01    3.864667e+02   2.485538e+00
  1.363256e-01    3.999394e+02   3.411743e+00
  1.378067e-01    3.952670e+02   3.054715e+00
  1.392878e-01    3.983044e+02   3.041025e+00
  1.407689e-01    3.978311e+02   3.161085e+00
  1.422501e-01    3.924543e+02   3.360730e+00
  1.437312e-01    3.872157e+02   3.127922e+00
  1.452123e-01    3.905471e+02   3.118300e+00
  1.466935e-01    3.882614e+02   3.406014e+00
  1.481746e-01    3.839478e+02   3.335557e+00
  1.496557e-01    3.800999e+02   3.158258e+00
  1.511368e-01    3.816141e+02   3.423578e+00
  1.526180e-01    3.778063e+02   3.832699e+00
  1.540991e-01    3.792946e+02   3.553636e+00
  1.555802e-01    3.772601e+02   4.616587e+00
  1.570613e-01    3.805966e+02   4.655803e+00
  1.585425e-01    3.798178e+02   4.181611e+00
  1.600236e-01    3.735445e+02   4.535903e+00
  1.615047e-01    3.755995e+02   4.636538e+00
  1.629859e-01    3.715367e+02   5.606781e+00
  1.644670e-01    3.777622e+02   6.043852e+00
  1.659481e-01    3.652249e+02   4.076285e+00
  1.674292e-01    3.704774e+02   5.296206e+00
  1.689104e-01    3.749052e+02   5.953760e+00
  1.703915e-01    3.725856e+02   7.013776e+00
  1.718726e-01    3.634992e+02   7.627988e+00
  1.733537e-01    3.685566e+02   8.392812e+00
  1.748349e-01    3.617487e+02   1.073111e+01
  1.763160e-01    3.709162e+02   8.358495e+00
  1.777971e-01    3.522967e+02   1.285112e+01
  1.792783e-01    3.687519e+02   8.861531e+00
  1.807594e-01    3.778125e+02   7.961724e+00
  1.822405e-01    3.708144e+02   9.631968e+00
  1.837216e-01    3.757858e+02   1.291024e+01
  1.852028e-01    3.762818e+02   5.932321e+00
  1.866839e-01    3.519840e+02   1.960424e+01
  1.881650e-01    3.260202e+02   2.640706e+01
  1.896461e-01    2.715191e+02   3.657280e+01
