# == pyFAI calibration ==
# Distance Sample to Detector: 4.500115234375 m
# PONI: 4.721e-01, 4.464e-01 m
# Rotations: 0.000000 0.000000 0.000000 rad
# 
# == Fit2d calibration ==
# Distance Sample-beamCenter: 4500.115 mm
# Center: x=59.522, y=62.942 pix
# Tilt: 0.000 deg  TiltPlanRot: 0.000 deg
# 
# Detector Detector	 Spline= None	 PixelSize= 7.500e-03, 7.500e-03 m
#    Detector has a mask: False 
#    Detector has a dark current: False 
#    detector has a flat field: False 
# 
# Wavelength: 4.9974700808525085e-09 m
# Mask applied: user provided
# Dark current applied: False
# Flat field applied: False
# Polarization factor: None
# Normalization factor: 1.0
# --> C:/Users/lutzbueno_v/Documents/GitHub/pipeline_SANS1/Data_Py/analysis/det_4p5\integration/integ_080440_L_4p5m.dat
#       q_nm^-1              I           sigma 
  1.339199e-02    8.605330e+02   2.760619e+01
  1.487312e-02    6.664264e+02   2.603112e+01
  1.635425e-02    7.871403e+02   3.771602e+01
  1.783537e-02    6.662600e+02   3.087503e+01
  1.931650e-02    5.974351e+02   1.658377e+01
  2.079763e-02    5.775466e+02   1.202726e+01
  2.227876e-02    5.365283e+02   1.034508e+01
  2.375988e-02    4.749267e+02   8.378688e+00
  2.524101e-02    4.545679e+02   7.020433e+00
  2.672214e-02    4.295785e+02   5.357519e+00
  2.820327e-02    4.056725e+02   5.257198e+00
  2.968439e-02    3.877662e+02   4.535564e+00
  3.116552e-02    3.799013e+02   3.911145e+00
  3.264665e-02    3.595743e+02   3.810736e+00
  3.412778e-02    3.566823e+02   3.947111e+00
  3.560890e-02    3.470167e+02   3.231528e+00
  3.709003e-02    3.402282e+02   2.847249e+00
  3.857116e-02    3.358853e+02   2.661897e+00
  4.005229e-02    3.339422e+02   2.928514e+00
  4.153341e-02    3.225162e+02   2.579374e+00
  4.301454e-02    3.171341e+02   2.869093e+00
  4.449567e-02    3.175534e+02   2.657542e+00
  4.597679e-02    3.210819e+02   2.644885e+00
  4.745792e-02    3.160684e+02   2.999366e+00
  4.893905e-02    3.034174e+02   2.488639e+00
  5.042018e-02    3.086956e+02   3.020828e+00
  5.190130e-02    3.077581e+02   2.528524e+00
  5.338243e-02    3.022421e+02   2.228258e+00
  5.486356e-02    3.053795e+02   2.669476e+00
  5.634469e-02    2.948379e+02   2.328615e+00
  5.782581e-02    2.967479e+02   2.337031e+00
  5.930694e-02    3.013615e+02   2.513288e+00
  6.078807e-02    2.990392e+02   2.294276e+00
  6.226920e-02    2.936162e+02   2.088950e+00
  6.375032e-02    2.934284e+02   2.162368e+00
  6.523145e-02    2.919612e+02   2.173880e+00
  6.671258e-02    2.907538e+02   2.249443e+00
  6.819370e-02    2.911739e+02   2.013932e+00
  6.967483e-02    2.868951e+02   2.201176e+00
  7.115596e-02    2.900507e+02   1.788385e+00
  7.263709e-02    2.884989e+02   2.050108e+00
  7.411821e-02    2.867097e+02   2.000624e+00
  7.559934e-02    2.878732e+02   2.052150e+00
  7.708047e-02    2.846864e+02   1.942020e+00
  7.856160e-02    2.811016e+02   1.902349e+00
  8.004272e-02    2.871341e+02   1.979830e+00
  8.152385e-02    2.827982e+02   1.845106e+00
  8.300498e-02    2.858257e+02   2.008700e+00
  8.448611e-02    2.820420e+02   1.891882e+00
  8.596723e-02    2.842625e+02   1.855469e+00
  8.744836e-02    2.849775e+02   1.917758e+00
  8.892949e-02    2.798613e+02   1.757756e+00
  9.041061e-02    2.797250e+02   1.754676e+00
  9.189174e-02    2.819240e+02   1.817888e+00
  9.337287e-02    2.804989e+02   1.789251e+00
  9.485400e-02    2.801842e+02   1.849426e+00
  9.633512e-02    2.813230e+02   1.766149e+00
  9.781625e-02    2.816537e+02   1.716016e+00
  9.929738e-02    2.790317e+02   1.744974e+00
  1.007785e-01    2.800744e+02   1.835548e+00
  1.022596e-01    2.771858e+02   1.629847e+00
  1.037408e-01    2.767864e+02   1.644548e+00
  1.052219e-01    2.743229e+02   1.541689e+00
  1.067030e-01    2.754529e+02   1.684337e+00
  1.081841e-01    2.776883e+02   1.610892e+00
  1.096653e-01    2.749025e+02   1.535796e+00
  1.111464e-01    2.780353e+02   1.562185e+00
  1.126275e-01    2.755970e+02   1.593960e+00
  1.141087e-01    2.751764e+02   1.584373e+00
  1.155898e-01    2.736152e+02   1.565153e+00
  1.170709e-01    2.744124e+02   1.490290e+00
  1.185520e-01    2.748709e+02   1.634138e+00
  1.200332e-01    2.731774e+02   1.580580e+00
  1.215143e-01    2.714278e+02   1.441322e+00
  1.229954e-01    2.725976e+02   1.597263e+00
  1.244765e-01    2.722574e+02   1.537344e+00
  1.259577e-01    2.730056e+02   1.639071e+00
  1.274388e-01    2.699371e+02   1.833545e+00
  1.289199e-01    2.691691e+02   1.666602e+00
  1.304011e-01    2.707776e+02   1.592314e+00
  1.318822e-01    2.706222e+02   1.875288e+00
  1.333633e-01    2.690138e+02   1.736782e+00
  1.348444e-01    2.658681e+02   1.767713e+00
  1.363256e-01    2.739142e+02   2.646497e+00
  1.378067e-01    2.719812e+02   2.218028e+00
  1.392878e-01    2.742888e+02   2.145908e+00
  1.407689e-01    2.739853e+02   2.276589e+00
  1.422501e-01    2.688280e+02   2.297179e+00
  1.437312e-01    2.679109e+02   2.206508e+00
  1.452123e-01    2.664098e+02   2.144140e+00
  1.466935e-01    2.646669e+02   2.481456e+00
  1.481746e-01    2.642034e+02   2.469111e+00
  1.496557e-01    2.649602e+02   2.484921e+00
  1.511368e-01    2.618051e+02   2.635659e+00
  1.526180e-01    2.609478e+02   2.918450e+00
  1.540991e-01    2.588094e+02   2.759318e+00
  1.555802e-01    2.592924e+02   2.912915e+00
  1.570613e-01    2.598245e+02   2.882530e+00
  1.585425e-01    2.583413e+02   3.170967e+00
  1.600236e-01    2.538893e+02   3.499168e+00
  1.615047e-01    2.617259e+02   3.436760e+00
  1.629859e-01    2.538194e+02   3.419306e+00
  1.644670e-01    2.605501e+02   4.005417e+00
  1.659481e-01    2.566966e+02   3.885004e+00
  1.674292e-01    2.558669e+02   3.636564e+00
  1.689104e-01    2.516014e+02   4.677968e+00
  1.703915e-01    2.494807e+02   3.982303e+00
  1.718726e-01    2.527293e+02   5.305793e+00
  1.733537e-01    2.504574e+02   6.186707e+00
  1.748349e-01    2.432912e+02   8.103944e+00
  1.763160e-01    2.541309e+02   5.221148e+00
  1.777971e-01    2.419884e+02   9.519846e+00
  1.792783e-01    2.526051e+02   7.222444e+00
  1.807594e-01    2.557004e+02   4.478558e+00
  1.822405e-01    2.564738e+02   7.917695e+00
  1.837216e-01    2.533349e+02   7.893621e+00
  1.852028e-01    2.574741e+02   7.150022e+00
  1.866839e-01    2.405482e+02   1.190663e+01
  1.881650e-01    2.267247e+02   1.466242e+01
  1.896461e-01    1.828528e+02   2.181849e+01
