# == pyFAI calibration ==
# Distance Sample to Detector: 4.500115234375 m
# PONI: 4.721e-01, 4.464e-01 m
# Rotations: 0.000000 0.000000 0.000000 rad
# 
# == Fit2d calibration ==
# Distance Sample-beamCenter: 4500.115 mm
# Center: x=59.522, y=62.942 pix
# Tilt: 0.000 deg  TiltPlanRot: 0.000 deg
# 
# Detector Detector	 Spline= None	 PixelSize= 7.500e-03, 7.500e-03 m
#    Detector has a mask: False 
#    Detector has a dark current: False 
#    detector has a flat field: False 
# 
# Wavelength: 4.9974700808525085e-09 m
# Mask applied: user provided
# Dark current applied: False
# Flat field applied: False
# Polarization factor: None
# Normalization factor: 1.0
# --> C:/Users/lutzbueno_v/Documents/GitHub/pipeline_SANS1/Data_Py/analysis/det_4p5\integration/integ_080379_H_4p5m.dat
#       q_nm^-1              I           sigma 
  1.339199e-02    1.361773e+01   9.008310e-01
  1.487312e-02    1.309800e+01   7.882069e-01
  1.635425e-02    1.436730e+01   7.484967e-01
  1.783537e-02    1.067970e+01   7.498793e-01
  1.931650e-02    1.132898e+01   6.321856e-01
  2.079763e-02    1.049317e+01   5.760964e-01
  2.227876e-02    9.515101e+00   4.692587e-01
  2.375988e-02    8.446817e+00   3.270825e-01
  2.524101e-02    9.417437e+00   4.620724e-01
  2.672214e-02    8.412465e+00   4.128956e-01
  2.820327e-02    8.089432e+00   3.185931e-01
  2.968439e-02    7.826203e+00   3.423504e-01
  3.116552e-02    7.514367e+00   3.235892e-01
  3.264665e-02    7.234559e+00   3.309268e-01
  3.412778e-02    7.481925e+00   3.059674e-01
  3.560890e-02    7.262053e+00   2.815178e-01
  3.709003e-02    6.755641e+00   2.663241e-01
  3.857116e-02    6.822103e+00   2.784728e-01
  4.005229e-02    6.881032e+00   2.916038e-01
  4.153341e-02    7.055008e+00   2.983684e-01
  4.301454e-02    6.656121e+00   2.885008e-01
  4.449567e-02    6.501564e+00   2.454852e-01
  4.597679e-02    6.819783e+00   2.683204e-01
  4.745792e-02    6.974479e+00   2.771167e-01
  4.893905e-02    6.341491e+00   2.994319e-01
  5.042018e-02    7.094014e+00   2.609820e-01
  5.190130e-02    6.737910e+00   2.320390e-01
  5.338243e-02    6.705059e+00   2.643546e-01
  5.486356e-02    6.668138e+00   2.735135e-01
  5.634469e-02    6.450292e+00   2.203802e-01
  5.782581e-02    6.533722e+00   2.393904e-01
  5.930694e-02    6.394421e+00   2.088398e-01
  6.078807e-02    6.428760e+00   2.236380e-01
  6.226920e-02    6.838562e+00   2.146666e-01
  6.375032e-02    6.457702e+00   2.048595e-01
  6.523145e-02    6.652719e+00   2.354940e-01
  6.671258e-02    6.167916e+00   2.093607e-01
  6.819370e-02    6.114541e+00   2.013559e-01
  6.967483e-02    6.486775e+00   2.101856e-01
  7.115596e-02    6.196376e+00   1.893081e-01
  7.263709e-02    6.233689e+00   2.014035e-01
  7.411821e-02    6.469559e+00   2.166310e-01
  7.559934e-02    6.243677e+00   1.769955e-01
  7.708047e-02    6.443457e+00   1.981207e-01
  7.856160e-02    6.071649e+00   1.863056e-01
  8.004272e-02    6.123383e+00   1.870182e-01
  8.152385e-02    6.127334e+00   1.894324e-01
  8.300498e-02    6.344770e+00   2.029505e-01
  8.448611e-02    6.214992e+00   1.751227e-01
  8.596723e-02    6.484288e+00   1.899236e-01
  8.744836e-02    6.130413e+00   1.835668e-01
  8.892949e-02    6.318146e+00   1.748498e-01
  9.041061e-02    6.401890e+00   1.841475e-01
  9.189174e-02    6.217219e+00   1.759923e-01
  9.337287e-02    6.101381e+00   1.665539e-01
  9.485400e-02    6.046689e+00   1.807051e-01
  9.633512e-02    5.918331e+00   1.553836e-01
  9.781625e-02    6.163296e+00   1.763882e-01
  9.929738e-02    6.313726e+00   1.848654e-01
  1.007785e-01    6.322434e+00   1.792396e-01
  1.022596e-01    6.215007e+00   1.648786e-01
  1.037408e-01    6.198648e+00   1.758356e-01
  1.052219e-01    5.666468e+00   1.503793e-01
  1.067030e-01    6.335455e+00   1.721137e-01
  1.081841e-01    6.101172e+00   1.717351e-01
  1.096653e-01    5.880760e+00   1.588468e-01
  1.111464e-01    5.709250e+00   1.605395e-01
  1.126275e-01    6.035958e+00   1.406902e-01
  1.141087e-01    5.885745e+00   1.575253e-01
  1.155898e-01    6.020262e+00   1.626955e-01
  1.170709e-01    6.152874e+00   1.670872e-01
  1.185520e-01    5.908593e+00   1.545106e-01
  1.200332e-01    6.129618e+00   1.564287e-01
  1.215143e-01    6.405785e+00   1.685636e-01
  1.229954e-01    6.082998e+00   1.531872e-01
  1.244765e-01    6.121208e+00   1.756705e-01
  1.259577e-01    6.186849e+00   1.686597e-01
  1.274388e-01    5.707784e+00   1.579459e-01
  1.289199e-01    6.032640e+00   1.552021e-01
  1.304011e-01    5.920597e+00   1.694155e-01
  1.318822e-01    6.086836e+00   1.729660e-01
  1.333633e-01    5.862608e+00   1.696922e-01
  1.348444e-01    6.080062e+00   1.760592e-01
  1.363256e-01    6.018138e+00   1.626280e-01
  1.378067e-01    6.104330e+00   1.850649e-01
  1.392878e-01    5.770565e+00   1.815312e-01
  1.407689e-01    6.194880e+00   1.875197e-01
  1.422501e-01    5.801643e+00   2.028411e-01
  1.437312e-01    5.656261e+00   1.932851e-01
  1.452123e-01    6.265423e+00   2.134751e-01
  1.466935e-01    6.087272e+00   2.274904e-01
  1.481746e-01    6.007162e+00   2.203701e-01
  1.496557e-01    6.312734e+00   2.098062e-01
  1.511368e-01    5.494307e+00   2.233075e-01
  1.526180e-01    5.853244e+00   2.166409e-01
  1.540991e-01    5.247381e+00   2.411385e-01
  1.555802e-01    5.760180e+00   2.849000e-01
  1.570613e-01    5.676303e+00   2.589841e-01
  1.585425e-01    5.849236e+00   2.828925e-01
  1.600236e-01    5.694157e+00   2.551096e-01
  1.615047e-01    5.463020e+00   3.274286e-01
  1.629859e-01    5.755749e+00   3.107919e-01
  1.644670e-01    5.967159e+00   3.458582e-01
  1.659481e-01    5.925292e+00   3.212905e-01
  1.674292e-01    5.534623e+00   3.040471e-01
  1.689104e-01    5.528121e+00   2.854769e-01
  1.703915e-01    5.537267e+00   3.823076e-01
  1.718726e-01    5.785338e+00   4.327267e-01
  1.733537e-01    5.556573e+00   5.082239e-01
  1.748349e-01    5.977677e+00   5.687164e-01
  1.763160e-01    5.981881e+00   5.600408e-01
  1.777971e-01    4.749262e+00   5.175197e-01
  1.792783e-01    5.670726e+00   5.757650e-01
  1.807594e-01    6.124946e+00   3.137054e-01
  1.822405e-01    4.496954e+00   6.994468e-01
  1.837216e-01    5.507280e+00   8.234859e-01
  1.852028e-01    5.280343e+00   5.581224e-01
  1.866839e-01    4.755144e+00   3.702488e-01
  1.881650e-01    3.102984e+00   5.949938e-01
  1.896461e-01    4.140063e+00   8.600454e-01
