# == pyFAI calibration ==
# Distance Sample to Detector: 4.500115234375 m
# PONI: 4.721e-01, 4.464e-01 m
# Rotations: 0.000000 0.000000 0.000000 rad
# 
# == Fit2d calibration ==
# Distance Sample-beamCenter: 4500.115 mm
# Center: x=59.522, y=62.942 pix
# Tilt: 0.000 deg  TiltPlanRot: 0.000 deg
# 
# Detector Detector	 Spline= None	 PixelSize= 7.500e-03, 7.500e-03 m
#    Detector has a mask: False 
#    Detector has a dark current: False 
#    detector has a flat field: False 
# 
# Wavelength: 4.9974700808525085e-09 m
# Mask applied: user provided
# Dark current applied: False
# Flat field applied: False
# Polarization factor: None
# Normalization factor: 1.0
# --> C:/Users/lutzbueno_v/Documents/GitHub/pipeline_SANS1/Data_Py/analysis/det_4p5\integration/integ_080368_S_4p5m.dat
#       q_nm^-1              I           sigma 
  1.339199e-02    6.001035e+00   1.561784e+00
  1.487312e-02    7.096746e+00   2.025303e+00
  1.635425e-02    3.303877e+00   3.135334e-01
  1.783537e-02    3.059756e+00   4.033260e-01
  1.931650e-02    2.100756e+00   2.912687e-01
  2.079763e-02    1.778518e+00   2.106838e-01
  2.227876e-02    1.170783e+00   1.139361e-01
  2.375988e-02    1.423854e+00   1.640873e-01
  2.524101e-02    7.455941e-01   1.139012e-01
  2.672214e-02    9.667873e-01   1.124514e-01
  2.820327e-02    7.506142e-01   1.097263e-01
  2.968439e-02    6.891489e-01   1.102043e-01
  3.116552e-02    5.677456e-01   9.266930e-02
  3.264665e-02    5.915624e-01   9.591217e-02
  3.412778e-02    5.796371e-01   7.743727e-02
  3.560890e-02    4.806398e-01   8.093601e-02
  3.709003e-02    4.817000e-01   7.142764e-02
  3.857116e-02    5.258001e-01   8.852620e-02
  4.005229e-02    4.713649e-01   6.993067e-02
  4.153341e-02    3.920135e-01   6.708753e-02
  4.301454e-02    3.673801e-01   6.192254e-02
  4.449567e-02    5.116581e-01   7.194895e-02
  4.597679e-02    4.397247e-01   7.667819e-02
  4.745792e-02    2.835080e-01   5.369460e-02
  4.893905e-02    3.466501e-01   5.321433e-02
  5.042018e-02    3.470611e-01   5.912162e-02
  5.190130e-02    2.710374e-01   4.775737e-02
  5.338243e-02    2.354967e-01   4.335380e-02
  5.486356e-02    4.135248e-01   5.683140e-02
  5.634469e-02    2.936391e-01   4.580596e-02
  5.782581e-02    3.402796e-01   5.646555e-02
  5.930694e-02    3.145539e-01   5.021712e-02
  6.078807e-02    3.371876e-01   4.747985e-02
  6.226920e-02    2.772149e-01   4.791876e-02
  6.375032e-02    2.922470e-01   5.180966e-02
  6.523145e-02    2.167811e-01   3.797081e-02
  6.671258e-02    2.239978e-01   3.824604e-02
  6.819370e-02    2.713456e-01   4.469597e-02
  6.967483e-02    2.728517e-01   3.880389e-02
  7.115596e-02    2.948216e-01   4.407663e-02
  7.263709e-02    2.417933e-01   3.871275e-02
  7.411821e-02    3.158189e-01   4.457428e-02
  7.559934e-02    3.538378e-01   4.695883e-02
  7.708047e-02    2.710618e-01   3.764885e-02
  7.856160e-02    2.303403e-01   3.399783e-02
  8.004272e-02    1.619881e-01   3.040873e-02
  8.152385e-02    2.561297e-01   4.226124e-02
  8.300498e-02    2.149661e-01   3.398455e-02
  8.448611e-02    2.014436e-01   3.257963e-02
  8.596723e-02    2.350580e-01   3.646974e-02
  8.744836e-02    1.787990e-01   3.312342e-02
  8.892949e-02    3.149323e-01   4.122015e-02
  9.041061e-02    2.298372e-01   3.313838e-02
  9.189174e-02    2.149986e-01   3.597781e-02
  9.337287e-02    2.058630e-01   3.341132e-02
  9.485400e-02    2.279830e-01   3.316153e-02
  9.633512e-02    1.499176e-01   2.632597e-02
  9.781625e-02    2.122838e-01   3.125433e-02
  9.929738e-02    2.524335e-01   3.481742e-02
  1.007785e-01    1.321997e-01   2.611085e-02
  1.022596e-01    1.861344e-01   2.680621e-02
  1.037408e-01    1.936438e-01   3.116640e-02
  1.052219e-01    1.489677e-01   2.649675e-02
  1.067030e-01    1.961599e-01   2.979786e-02
  1.081841e-01    1.827798e-01   2.808902e-02
  1.096653e-01    1.314531e-01   2.334458e-02
  1.111464e-01    1.809212e-01   2.888659e-02
  1.126275e-01    2.049689e-01   2.852301e-02
  1.141087e-01    1.429244e-01   2.284159e-02
  1.155898e-01    1.534182e-01   2.511157e-02
  1.170709e-01    1.648212e-01   2.538113e-02
  1.185520e-01    1.409544e-01   2.192920e-02
  1.200332e-01    1.794508e-01   2.715949e-02
  1.215143e-01    1.704307e-01   2.515843e-02
  1.229954e-01    1.784133e-01   2.558333e-02
  1.244765e-01    1.926255e-01   2.825319e-02
  1.259577e-01    1.513759e-01   2.730440e-02
  1.274388e-01    1.457820e-01   2.485084e-02
  1.289199e-01    1.615334e-01   2.330508e-02
  1.304011e-01    1.557783e-01   2.560049e-02
  1.318822e-01    1.066453e-01   2.346742e-02
  1.333633e-01    1.377708e-01   2.403662e-02
  1.348444e-01    2.124643e-01   3.229360e-02
  1.363256e-01    1.433770e-01   2.586042e-02
  1.378067e-01    1.241417e-01   2.713690e-02
  1.392878e-01    1.409660e-01   2.701320e-02
  1.407689e-01    1.094801e-01   2.393253e-02
  1.422501e-01    1.174830e-01   2.705542e-02
  1.437312e-01    1.074468e-01   2.736795e-02
  1.452123e-01    1.294219e-01   3.054758e-02
  1.466935e-01    1.554126e-01   3.325147e-02
  1.481746e-01    1.197555e-01   3.147031e-02
  1.496557e-01    9.613778e-02   3.052434e-02
  1.511368e-01    9.617832e-02   3.054248e-02
  1.526180e-01    1.501714e-01   3.752131e-02
  1.540991e-01    8.192564e-02   3.164819e-02
  1.555802e-01    7.394446e-02   3.110215e-02
  1.570613e-01    1.365930e-01   3.711498e-02
  1.585425e-01    1.481720e-01   4.716689e-02
  1.600236e-01    1.297995e-01   4.685070e-02
  1.615047e-01    1.619536e-01   4.341130e-02
  1.629859e-01    2.143940e-01   6.018693e-02
  1.644670e-01    7.902539e-02   3.434853e-02
  1.659481e-01    1.081519e-01   4.227629e-02
  1.674292e-01    1.332247e-01   4.757040e-02
  1.689104e-01    6.174849e-02   3.498085e-02
  1.703915e-01    1.402751e-01   6.347564e-02
  1.718726e-01    2.581289e-02   2.574590e-02
  1.733537e-01    1.176906e-01   5.612895e-02
  1.748349e-01    1.661327e-01   6.899973e-02
  1.763160e-01    2.377699e-01   8.636753e-02
  1.777971e-01    8.970281e-02   6.145872e-02
  1.792783e-01    1.547438e-01   8.358283e-02
  1.807594e-01    2.579827e-01   1.732399e-01
  1.822405e-01    7.381640e-02   7.217520e-02
  1.837216e-01    2.582312e-01   1.311509e-01
  1.852028e-01    2.296605e-01   1.455023e-01
  1.866839e-01    1.033727e-04   7.370855e-09
  1.881650e-01    1.034328e-04   1.122491e-08
  1.896461e-01    1.035016e-04   1.410226e-08
