# == pyFAI calibration ==
# Distance Sample to Detector: 4.500115234375 m
# PONI: 4.721e-01, 4.464e-01 m
# Rotations: 0.000000 0.000000 0.000000 rad
# 
# == Fit2d calibration ==
# Distance Sample-beamCenter: 4500.115 mm
# Center: x=59.522, y=62.942 pix
# Tilt: 0.000 deg  TiltPlanRot: 0.000 deg
# 
# Detector Detector	 Spline= None	 PixelSize= 7.500e-03, 7.500e-03 m
#    Detector has a mask: False 
#    Detector has a dark current: False 
#    detector has a flat field: False 
# 
# Wavelength: 4.9974700808525085e-09 m
# Mask applied: user provided
# Dark current applied: False
# Flat field applied: False
# Polarization factor: None
# Normalization factor: 1.0
# --> C:/Users/lutzbueno_v/Documents/GitHub/pipeline_SANS1/Data_Py/analysis/det_4p5\integration/integ_080449_U_4p5m.dat
#       q_nm^-1              I           sigma 
  1.339199e-02    9.176967e+02   4.913051e+01
  1.487312e-02    7.093879e+02   3.671754e+01
  1.635425e-02    8.209975e+02   3.460539e+01
  1.783537e-02    7.078902e+02   2.813375e+01
  1.931650e-02    6.346232e+02   1.600402e+01
  2.079763e-02    6.207197e+02   1.052657e+01
  2.227876e-02    5.847849e+02   8.281796e+00
  2.375988e-02    5.263387e+02   8.066292e+00
  2.524101e-02    5.105428e+02   6.436739e+00
  2.672214e-02    4.853280e+02   4.947241e+00
  2.820327e-02    4.619315e+02   4.616919e+00
  2.968439e-02    4.522299e+02   4.863249e+00
  3.116552e-02    4.401357e+02   4.120852e+00
  3.264665e-02    4.210453e+02   3.977781e+00
  3.412778e-02    4.210954e+02   4.296475e+00
  3.560890e-02    4.120414e+02   3.499993e+00
  3.709003e-02    4.002305e+02   2.989733e+00
  3.857116e-02    3.957821e+02   3.187670e+00
  4.005229e-02    4.008555e+02   3.261219e+00
  4.153341e-02    3.877641e+02   3.037653e+00
  4.301454e-02    3.840515e+02   3.033130e+00
  4.449567e-02    3.811941e+02   3.180140e+00
  4.597679e-02    3.874803e+02   2.782005e+00
  4.745792e-02    3.826448e+02   2.897480e+00
  4.893905e-02    3.670852e+02   3.049189e+00
  5.042018e-02    3.752984e+02   3.067952e+00
  5.190130e-02    3.687696e+02   2.457332e+00
  5.338243e-02    3.703826e+02   3.013548e+00
  5.486356e-02    3.708470e+02   3.103561e+00
  5.634469e-02    3.620807e+02   2.516411e+00
  5.782581e-02    3.640827e+02   2.791245e+00
  5.930694e-02    3.662791e+02   2.571051e+00
  6.078807e-02    3.584112e+02   2.559533e+00
  6.226920e-02    3.607061e+02   2.241672e+00
  6.375032e-02    3.598258e+02   2.458990e+00
  6.523145e-02    3.565092e+02   2.355637e+00
  6.671258e-02    3.562327e+02   2.592435e+00
  6.819370e-02    3.539909e+02   2.312122e+00
  6.967483e-02    3.535592e+02   2.588781e+00
  7.115596e-02    3.516125e+02   2.244244e+00
  7.263709e-02    3.547287e+02   2.463169e+00
  7.411821e-02    3.539313e+02   2.492051e+00
  7.559934e-02    3.515389e+02   2.384917e+00
  7.708047e-02    3.526498e+02   2.154754e+00
  7.856160e-02    3.489441e+02   2.184357e+00
  8.004272e-02    3.495128e+02   2.192578e+00
  8.152385e-02    3.491449e+02   2.439852e+00
  8.300498e-02    3.517276e+02   2.192466e+00
  8.448611e-02    3.475280e+02   2.155905e+00
  8.596723e-02    3.468674e+02   2.073090e+00
  8.744836e-02    3.473919e+02   2.095054e+00
  8.892949e-02    3.457243e+02   2.063743e+00
  9.041061e-02    3.460937e+02   2.045754e+00
  9.189174e-02    3.451657e+02   2.148448e+00
  9.337287e-02    3.448104e+02   2.150806e+00
  9.485400e-02    3.424356e+02   2.094725e+00
  9.633512e-02    3.449463e+02   2.142586e+00
  9.781625e-02    3.429094e+02   2.126466e+00
  9.929738e-02    3.426106e+02   2.142190e+00
  1.007785e-01    3.406235e+02   1.986936e+00
  1.022596e-01    3.407135e+02   1.996045e+00
  1.037408e-01    3.353879e+02   1.891377e+00
  1.052219e-01    3.375519e+02   1.950064e+00
  1.067030e-01    3.385504e+02   1.968266e+00
  1.081841e-01    3.405864e+02   1.917658e+00
  1.096653e-01    3.384918e+02   2.001824e+00
  1.111464e-01    3.395195e+02   2.009809e+00
  1.126275e-01    3.390954e+02   1.981351e+00
  1.141087e-01    3.363487e+02   2.064014e+00
  1.155898e-01    3.372154e+02   1.916210e+00
  1.170709e-01    3.380580e+02   1.785776e+00
  1.185520e-01    3.351776e+02   1.970154e+00
  1.200332e-01    3.342903e+02   1.766822e+00
  1.215143e-01    3.356441e+02   1.719724e+00
  1.229954e-01    3.344777e+02   1.889369e+00
  1.244765e-01    3.343800e+02   1.995656e+00
  1.259577e-01    3.322266e+02   1.875930e+00
  1.274388e-01    3.323456e+02   1.862597e+00
  1.289199e-01    3.303461e+02   1.947574e+00
  1.304011e-01    3.338931e+02   2.126199e+00
  1.318822e-01    3.327781e+02   2.021748e+00
  1.333633e-01    3.301714e+02   1.909628e+00
  1.348444e-01    3.295433e+02   2.151548e+00
  1.363256e-01    3.342043e+02   3.047473e+00
  1.378067e-01    3.355004e+02   2.632529e+00
  1.392878e-01    3.346602e+02   2.621527e+00
  1.407689e-01    3.347020e+02   2.692045e+00
  1.422501e-01    3.316390e+02   2.869363e+00
  1.437312e-01    3.282443e+02   2.684179e+00
  1.452123e-01    3.304005e+02   2.643193e+00
  1.466935e-01    3.275292e+02   2.980261e+00
  1.481746e-01    3.304817e+02   2.986064e+00
  1.496557e-01    3.228400e+02   2.617264e+00
  1.511368e-01    3.199451e+02   3.002686e+00
  1.526180e-01    3.219003e+02   3.176696e+00
  1.540991e-01    3.194152e+02   3.261476e+00
  1.555802e-01    3.183079e+02   3.813496e+00
  1.570613e-01    3.206940e+02   3.408476e+00
  1.585425e-01    3.209429e+02   3.622983e+00
  1.600236e-01    3.154874e+02   3.796578e+00
  1.615047e-01    3.144272e+02   4.429344e+00
  1.629859e-01    3.113309e+02   4.134493e+00
  1.644670e-01    3.200955e+02   4.920739e+00
  1.659481e-01    3.113930e+02   4.064927e+00
  1.674292e-01    3.137427e+02   4.395843e+00
  1.689104e-01    3.124313e+02   5.459004e+00
  1.703915e-01    3.107879e+02   5.140485e+00
  1.718726e-01    3.115598e+02   6.504993e+00
  1.733537e-01    3.068169e+02   7.005579e+00
  1.748349e-01    2.994149e+02   9.293939e+00
  1.763160e-01    3.164455e+02   6.691242e+00
  1.777971e-01    2.931101e+02   9.625446e+00
  1.792783e-01    3.118900e+02   9.984267e+00
  1.807594e-01    3.054091e+02   7.231108e+00
  1.822405e-01    3.098475e+02   9.016213e+00
  1.837216e-01    3.124521e+02   9.768092e+00
  1.852028e-01    3.016683e+02   1.181502e+01
  1.866839e-01    2.988504e+02   2.029352e+01
  1.881650e-01    2.749244e+02   2.723996e+01
  1.896461e-01    2.190783e+02   2.348436e+01
