# == pyFAI calibration ==
# Distance Sample to Detector: 4.500115234375 m
# PONI: 4.721e-01, 4.464e-01 m
# Rotations: 0.000000 0.000000 0.000000 rad
# 
# == Fit2d calibration ==
# Distance Sample-beamCenter: 4500.115 mm
# Center: x=59.522, y=62.942 pix
# Tilt: 0.000 deg  TiltPlanRot: 0.000 deg
# 
# Detector Detector	 Spline= None	 PixelSize= 7.500e-03, 7.500e-03 m
#    Detector has a mask: False 
#    Detector has a dark current: False 
#    detector has a flat field: False 
# 
# Wavelength: 4.9974700808525085e-09 m
# Mask applied: user provided
# Dark current applied: False
# Flat field applied: False
# Polarization factor: None
# Normalization factor: 1.0
# --> C:/Users/lutzbueno_v/Documents/GitHub/pipeline_SANS1/Data_Py/analysis/det_4p5\integration/integ_080442_N_4p5m.dat
#       q_nm^-1              I           sigma 
  1.339199e-02    1.621510e+03   8.466612e+01
  1.487312e-02    1.251074e+03   6.207563e+01
  1.635425e-02    1.424515e+03   6.223153e+01
  1.783537e-02    1.214984e+03   4.730210e+01
  1.931650e-02    1.113992e+03   2.849461e+01
  2.079763e-02    1.067257e+03   1.799163e+01
  2.227876e-02    1.012347e+03   1.380548e+01
  2.375988e-02    9.323440e+02   1.109438e+01
  2.524101e-02    8.904775e+02   1.023091e+01
  2.672214e-02    8.503035e+02   8.296191e+00
  2.820327e-02    8.189507e+02   7.364568e+00
  2.968439e-02    7.884777e+02   7.579747e+00
  3.116552e-02    7.783719e+02   6.596923e+00
  3.264665e-02    7.475104e+02   6.425051e+00
  3.412778e-02    7.489169e+02   6.664435e+00
  3.560890e-02    7.259517e+02   5.654488e+00
  3.709003e-02    7.053370e+02   5.687071e+00
  3.857116e-02    7.149439e+02   4.203408e+00
  4.005229e-02    7.086049e+02   4.952094e+00
  4.153341e-02    6.904327e+02   4.738235e+00
  4.301454e-02    6.836104e+02   5.078376e+00
  4.449567e-02    6.878015e+02   5.344889e+00
  4.597679e-02    6.873360e+02   5.037969e+00
  4.745792e-02    6.773444e+02   5.013420e+00
  4.893905e-02    6.597492e+02   4.995136e+00
  5.042018e-02    6.734012e+02   5.189147e+00
  5.190130e-02    6.642351e+02   4.338936e+00
  5.338243e-02    6.599644e+02   4.492421e+00
  5.486356e-02    6.583334e+02   4.712924e+00
  5.634469e-02    6.463257e+02   4.440681e+00
  5.782581e-02    6.481732e+02   4.448556e+00
  5.930694e-02    6.541328e+02   4.387410e+00
  6.078807e-02    6.455102e+02   4.307285e+00
  6.226920e-02    6.420758e+02   3.968435e+00
  6.375032e-02    6.423466e+02   4.427120e+00
  6.523145e-02    6.362990e+02   3.906502e+00
  6.671258e-02    6.394140e+02   4.359299e+00
  6.819370e-02    6.322391e+02   4.040971e+00
  6.967483e-02    6.316855e+02   4.016031e+00
  7.115596e-02    6.331089e+02   3.418318e+00
  7.263709e-02    6.390358e+02   3.892191e+00
  7.411821e-02    6.339395e+02   3.646349e+00
  7.559934e-02    6.361475e+02   3.654506e+00
  7.708047e-02    6.315130e+02   4.094308e+00
  7.856160e-02    6.233923e+02   3.495237e+00
  8.004272e-02    6.333162e+02   3.690330e+00
  8.152385e-02    6.248214e+02   3.724503e+00
  8.300498e-02    6.312254e+02   3.499394e+00
  8.448611e-02    6.276216e+02   3.676548e+00
  8.596723e-02    6.264135e+02   3.656478e+00
  8.744836e-02    6.249988e+02   3.421477e+00
  8.892949e-02    6.271127e+02   3.612925e+00
  9.041061e-02    6.170460e+02   3.259254e+00
  9.189174e-02    6.265217e+02   3.705405e+00
  9.337287e-02    6.213635e+02   3.441559e+00
  9.485400e-02    6.195213e+02   3.648199e+00
  9.633512e-02    6.209403e+02   3.497981e+00
  9.781625e-02    6.177726e+02   3.399447e+00
  9.929738e-02    6.139407e+02   3.209169e+00
  1.007785e-01    6.150690e+02   3.597495e+00
  1.022596e-01    6.121360e+02   3.153511e+00
  1.037408e-01    6.069482e+02   3.359638e+00
  1.052219e-01    6.066956e+02   2.954116e+00
  1.067030e-01    6.122429e+02   3.301449e+00
  1.081841e-01    6.094501e+02   3.084855e+00
  1.096653e-01    6.067735e+02   3.378043e+00
  1.111464e-01    6.078069e+02   3.348840e+00
  1.126275e-01    6.094555e+02   3.097582e+00
  1.141087e-01    6.053494e+02   3.172950e+00
  1.155898e-01    6.071668e+02   3.320805e+00
  1.170709e-01    6.077012e+02   2.922259e+00
  1.185520e-01    6.052668e+02   3.125262e+00
  1.200332e-01    6.042236e+02   2.935519e+00
  1.215143e-01    6.013159e+02   2.918405e+00
  1.229954e-01    5.965776e+02   3.034250e+00
  1.244765e-01    6.026622e+02   2.914737e+00
  1.259577e-01    6.013346e+02   3.135200e+00
  1.274388e-01    5.945523e+02   3.012689e+00
  1.289199e-01    5.946364e+02   2.939499e+00
  1.304011e-01    6.042166e+02   3.275369e+00
  1.318822e-01    5.968295e+02   3.333392e+00
  1.333633e-01    5.973997e+02   3.371000e+00
  1.348444e-01    5.905562e+02   3.842402e+00
  1.363256e-01    6.058605e+02   4.846138e+00
  1.378067e-01    6.006691e+02   4.468295e+00
  1.392878e-01    6.028804e+02   4.151516e+00
  1.407689e-01    6.025615e+02   4.622723e+00
  1.422501e-01    5.962718e+02   4.782335e+00
  1.437312e-01    5.910021e+02   4.636315e+00
  1.452123e-01    5.942739e+02   4.282794e+00
  1.466935e-01    5.911014e+02   4.796488e+00
  1.481746e-01    5.855188e+02   4.644564e+00
  1.496557e-01    5.805969e+02   4.220040e+00
  1.511368e-01    5.747360e+02   5.247174e+00
  1.526180e-01    5.787302e+02   5.174013e+00
  1.540991e-01    5.768130e+02   5.519387e+00
  1.555802e-01    5.768619e+02   5.603339e+00
  1.570613e-01    5.781638e+02   5.768332e+00
  1.585425e-01    5.741260e+02   6.449404e+00
  1.600236e-01    5.732161e+02   6.498914e+00
  1.615047e-01    5.676145e+02   6.609475e+00
  1.629859e-01    5.707836e+02   7.632625e+00
  1.644670e-01    5.765728e+02   8.957946e+00
  1.659481e-01    5.638932e+02   7.295732e+00
  1.674292e-01    5.623823e+02   7.351303e+00
  1.689104e-01    5.581552e+02   9.407075e+00
  1.703915e-01    5.588434e+02   9.384253e+00
  1.718726e-01    5.570638e+02   1.192215e+01
  1.733537e-01    5.484543e+02   1.276975e+01
  1.748349e-01    5.372929e+02   1.596534e+01
  1.763160e-01    5.577807e+02   1.214328e+01
  1.777971e-01    5.442834e+02   1.894628e+01
  1.792783e-01    5.631547e+02   1.264869e+01
  1.807594e-01    5.667187e+02   8.693483e+00
  1.822405e-01    5.641097e+02   1.341319e+01
  1.837216e-01    5.732735e+02   1.910210e+01
  1.852028e-01    5.567318e+02   1.506546e+01
  1.866839e-01    5.368143e+02   2.655494e+01
  1.881650e-01    5.082688e+02   3.542716e+01
  1.896461e-01    3.933060e+02   4.840860e+01
