# == pyFAI calibration ==
# Distance Sample to Detector: 4.500115234375 m
# PONI: 4.721e-01, 4.464e-01 m
# Rotations: 0.000000 0.000000 0.000000 rad
# 
# == Fit2d calibration ==
# Distance Sample-beamCenter: 4500.115 mm
# Center: x=59.522, y=62.942 pix
# Tilt: 0.000 deg  TiltPlanRot: 0.000 deg
# 
# Detector Detector	 Spline= None	 PixelSize= 7.500e-03, 7.500e-03 m
#    Detector has a mask: False 
#    Detector has a dark current: False 
#    detector has a flat field: False 
# 
# Wavelength: 4.9974700808525085e-09 m
# Mask applied: user provided
# Dark current applied: False
# Flat field applied: False
# Polarization factor: None
# Normalization factor: 1.0
# --> C:/Users/lutzbueno_v/Documents/GitHub/pipeline_SANS1/Data_Py/analysis/det_4p5\integration/integ_080439_K_4p5m.dat
#       q_nm^-1              I           sigma 
  1.339199e-02    8.088318e+02   3.118041e+01
  1.487312e-02    6.370392e+02   3.013464e+01
  1.635425e-02    7.595576e+02   3.539837e+01
  1.783537e-02    6.481075e+02   2.796736e+01
  1.931650e-02    5.923583e+02   1.732352e+01
  2.079763e-02    5.641411e+02   1.195815e+01
  2.227876e-02    5.233306e+02   1.024745e+01
  2.375988e-02    4.746188e+02   7.844275e+00
  2.524101e-02    4.477206e+02   6.679438e+00
  2.672214e-02    4.254910e+02   5.195464e+00
  2.820327e-02    4.107763e+02   4.606115e+00
  2.968439e-02    3.917368e+02   4.913116e+00
  3.116552e-02    3.803943e+02   3.981055e+00
  3.264665e-02    3.616825e+02   3.595320e+00
  3.412778e-02    3.621884e+02   3.952632e+00
  3.560890e-02    3.490191e+02   2.980409e+00
  3.709003e-02    3.414450e+02   3.104835e+00
  3.857116e-02    3.360731e+02   3.119584e+00
  4.005229e-02    3.398806e+02   2.936385e+00
  4.153341e-02    3.274264e+02   2.571871e+00
  4.301454e-02    3.221763e+02   2.407474e+00
  4.449567e-02    3.210174e+02   2.943801e+00
  4.597679e-02    3.208570e+02   2.447025e+00
  4.745792e-02    3.162000e+02   2.970228e+00
  4.893905e-02    3.049536e+02   2.497338e+00
  5.042018e-02    3.102860e+02   2.760493e+00
  5.190130e-02    3.045246e+02   2.457346e+00
  5.338243e-02    3.056513e+02   2.551977e+00
  5.486356e-02    3.071126e+02   2.200876e+00
  5.634469e-02    3.000242e+02   2.219822e+00
  5.782581e-02    2.984751e+02   2.605361e+00
  5.930694e-02    2.995794e+02   2.385673e+00
  6.078807e-02    2.951977e+02   2.381412e+00
  6.226920e-02    2.957285e+02   2.112350e+00
  6.375032e-02    2.943498e+02   2.207426e+00
  6.523145e-02    2.954717e+02   2.227221e+00
  6.671258e-02    2.917919e+02   2.288856e+00
  6.819370e-02    2.909319e+02   1.928600e+00
  6.967483e-02    2.904878e+02   2.215975e+00
  7.115596e-02    2.894947e+02   1.924501e+00
  7.263709e-02    2.917048e+02   2.002075e+00
  7.411821e-02    2.883400e+02   1.858759e+00
  7.559934e-02    2.898345e+02   1.920584e+00
  7.708047e-02    2.900399e+02   2.100691e+00
  7.856160e-02    2.848948e+02   1.786314e+00
  8.004272e-02    2.877296e+02   2.092062e+00
  8.152385e-02    2.874905e+02   1.941142e+00
  8.300498e-02    2.886644e+02   1.874783e+00
  8.448611e-02    2.868964e+02   1.985778e+00
  8.596723e-02    2.877312e+02   1.803196e+00
  8.744836e-02    2.846526e+02   1.832815e+00
  8.892949e-02    2.858226e+02   1.811957e+00
  9.041061e-02    2.842209e+02   1.855394e+00
  9.189174e-02    2.836229e+02   1.755168e+00
  9.337287e-02    2.842235e+02   1.767920e+00
  9.485400e-02    2.804461e+02   1.869851e+00
  9.633512e-02    2.839350e+02   1.770001e+00
  9.781625e-02    2.826392e+02   1.785211e+00
  9.929738e-02    2.815068e+02   1.790059e+00
  1.007785e-01    2.824571e+02   1.785312e+00
  1.022596e-01    2.788868e+02   1.664943e+00
  1.037408e-01    2.788069e+02   1.652877e+00
  1.052219e-01    2.763982e+02   1.599677e+00
  1.067030e-01    2.788777e+02   1.672698e+00
  1.081841e-01    2.799783e+02   1.835218e+00
  1.096653e-01    2.787734e+02   1.618086e+00
  1.111464e-01    2.798738e+02   1.654464e+00
  1.126275e-01    2.776500e+02   1.645412e+00
  1.141087e-01    2.771509e+02   1.682039e+00
  1.155898e-01    2.770612e+02   1.741611e+00
  1.170709e-01    2.787820e+02   1.509128e+00
  1.185520e-01    2.778017e+02   1.604716e+00
  1.200332e-01    2.744408e+02   1.541732e+00
  1.215143e-01    2.728777e+02   1.559118e+00
  1.229954e-01    2.750862e+02   1.646691e+00
  1.244765e-01    2.763047e+02   1.400325e+00
  1.259577e-01    2.740129e+02   1.489775e+00
  1.274388e-01    2.708455e+02   1.655268e+00
  1.289199e-01    2.727052e+02   1.659074e+00
  1.304011e-01    2.751802e+02   1.590587e+00
  1.318822e-01    2.714835e+02   1.819872e+00
  1.333633e-01    2.697999e+02   1.683740e+00
  1.348444e-01    2.670436e+02   1.993205e+00
  1.363256e-01    2.769925e+02   2.396459e+00
  1.378067e-01    2.739453e+02   2.218318e+00
  1.392878e-01    2.770250e+02   2.305773e+00
  1.407689e-01    2.738759e+02   2.517771e+00
  1.422501e-01    2.733507e+02   2.434850e+00
  1.437312e-01    2.668440e+02   2.291770e+00
  1.452123e-01    2.733003e+02   2.278210e+00
  1.466935e-01    2.698444e+02   2.497326e+00
  1.481746e-01    2.664132e+02   2.418638e+00
  1.496557e-01    2.651610e+02   2.435768e+00
  1.511368e-01    2.651855e+02   2.435130e+00
  1.526180e-01    2.632084e+02   2.611047e+00
  1.540991e-01    2.619702e+02   2.783664e+00
  1.555802e-01    2.622886e+02   3.149121e+00
  1.570613e-01    2.645680e+02   2.944560e+00
  1.585425e-01    2.632650e+02   3.397203e+00
  1.600236e-01    2.660170e+02   3.276212e+00
  1.615047e-01    2.633041e+02   3.428324e+00
  1.629859e-01    2.595598e+02   3.567621e+00
  1.644670e-01    2.617025e+02   4.078997e+00
  1.659481e-01    2.574890e+02   3.736114e+00
  1.674292e-01    2.518919e+02   4.086808e+00
  1.689104e-01    2.568418e+02   4.216418e+00
  1.703915e-01    2.550647e+02   4.569698e+00
  1.718726e-01    2.551977e+02   5.334888e+00
  1.733537e-01    2.522214e+02   5.996863e+00
  1.748349e-01    2.495013e+02   7.513029e+00
  1.763160e-01    2.517540e+02   6.059561e+00
  1.777971e-01    2.477681e+02   8.814148e+00
  1.792783e-01    2.487387e+02   6.445025e+00
  1.807594e-01    2.626635e+02   8.054521e+00
  1.822405e-01    2.535250e+02   8.931065e+00
  1.837216e-01    2.642634e+02   8.046626e+00
  1.852028e-01    2.519642e+02   5.688384e+00
  1.866839e-01    2.359998e+02   1.413568e+01
  1.881650e-01    2.263110e+02   1.901269e+01
  1.896461e-01    1.807828e+02   1.939271e+01
